Height (m)  50th percentile density (kg/m^3)   84th percentile density (kg/m^3)   16th percentile density (kg/m^3) 
    0.580               0.907                              0.449                              2.633
    0.590               0.896                              0.447                              2.608
    0.600               0.885                              0.445                              2.584
    0.610               0.875                              0.443                              2.561
    0.620               0.865                              0.441                              2.538
    0.630               0.856                              0.439                              2.516
    0.640               0.847                              0.438                              2.494
    0.650               0.838                              0.436                              2.473
    0.660               0.829                              0.434                              2.453
    0.670               0.821                              0.433                              2.433
    0.680               0.813                              0.432                              2.413
    0.690               0.806                              0.430                              2.394
    0.700               0.798                              0.429                              2.376
    0.710               0.791                              0.428                              2.358
    0.720               0.784                              0.426                              2.340
    0.730               0.777                              0.425                              2.323
    0.740               0.771                              0.424                              2.306
    0.750               0.764                              0.423                              2.289
    0.760               0.758                              0.422                              2.273
    0.770               0.752                              0.421                              2.257
    0.780               0.746                              0.420                              2.241
    0.790               0.740                              0.419                              2.226
    0.800               0.735                              0.418                              2.211
    0.810               0.729                              0.417                              2.197
    0.820               0.724                              0.417                              2.183
    0.830               0.719                              0.416                              2.168
    0.840               0.714                              0.415                              2.155
    0.850               0.709                              0.414                              2.141
    0.860               0.705                              0.413                              2.128
    0.870               0.700                              0.413                              2.115
    0.880               0.696                              0.412                              2.102
    0.890               0.691                              0.411                              2.090
    0.900               0.687                              0.411                              2.078
    0.910               0.683                              0.410                              2.066
    0.920               0.679                              0.410                              2.054
    0.930               0.675                              0.409                              2.042
    0.940               0.671                              0.408                              2.031
    0.950               0.667                              0.408                              2.020
    0.960               0.663                              0.407                              2.009
    0.970               0.660                              0.407                              1.998
    0.980               0.656                              0.406                              1.987
    0.990               0.653                              0.406                              1.977
    1.000               0.650                              0.405                              1.966
    1.010               0.646                              0.405                              1.956
    1.020               0.643                              0.404                              1.946
    1.030               0.640                              0.404                              1.936
    1.040               0.637                              0.404                              1.927
    1.050               0.634                              0.403                              1.917
    1.060               0.631                              0.403                              1.908
    1.070               0.628                              0.402                              1.899
    1.080               0.625                              0.402                              1.890
    1.090               0.622                              0.402                              1.881
    1.100               0.620                              0.401                              1.872
    1.110               0.617                              0.401                              1.863
    1.120               0.614                              0.401                              1.855
    1.130               0.612                              0.400                              1.846
    1.140               0.609                              0.400                              1.838
    1.150               0.607                              0.400                              1.830
    1.160               0.604                              0.399                              1.822
    1.170               0.602                              0.399                              1.814
    1.180               0.600                              0.399                              1.806
    1.190               0.598                              0.398                              1.798
    1.200               0.595                              0.398                              1.790
    1.210               0.593                              0.398                              1.783
    1.220               0.591                              0.398                              1.776
    1.230               0.589                              0.397                              1.768
    1.240               0.587                              0.397                              1.761
    1.250               0.585                              0.397                              1.754
    1.260               0.583                              0.397                              1.747
    1.270               0.581                              0.396                              1.740
    1.280               0.579                              0.396                              1.733
    1.290               0.577                              0.396                              1.726
    1.300               0.575                              0.396                              1.720
    1.310               0.573                              0.395                              1.713
    1.320               0.571                              0.395                              1.706
    1.330               0.570                              0.395                              1.700
    1.340               0.568                              0.395                              1.694
    1.350               0.566                              0.395                              1.687
    1.360               0.564                              0.394                              1.681
    1.370               0.563                              0.394                              1.675
    1.380               0.561                              0.394                              1.669
    1.390               0.560                              0.394                              1.663
    1.400               0.558                              0.394                              1.657
    1.410               0.556                              0.393                              1.651
    1.420               0.555                              0.393                              1.645
    1.430               0.553                              0.393                              1.640
    1.440               0.552                              0.393                              1.634
    1.450               0.550                              0.393                              1.628
    1.460               0.549                              0.393                              1.623
    1.470               0.547                              0.392                              1.618
    1.480               0.546                              0.392                              1.612
    1.490               0.545                              0.392                              1.607
    1.500               0.543                              0.392                              1.601
    1.510               0.542                              0.392                              1.596
    1.520               0.541                              0.392                              1.591
    1.530               0.539                              0.392                              1.586
    1.540               0.538                              0.391                              1.581
    1.550               0.537                              0.391                              1.576
    1.560               0.536                              0.391                              1.571
    1.570               0.534                              0.391                              1.566
    1.580               0.533                              0.391                              1.561
    1.590               0.532                              0.391                              1.556
    1.600               0.531                              0.391                              1.552
    1.610               0.530                              0.390                              1.547
    1.620               0.528                              0.390                              1.542
    1.630               0.527                              0.390                              1.538
    1.640               0.526                              0.390                              1.533
    1.650               0.525                              0.390                              1.529
    1.660               0.524                              0.390                              1.524
    1.670               0.523                              0.390                              1.520
    1.680               0.522                              0.390                              1.515
    1.690               0.521                              0.390                              1.511
    1.700               0.520                              0.389                              1.507
    1.710               0.519                              0.389                              1.502
    1.720               0.518                              0.389                              1.498
    1.730               0.517                              0.389                              1.494
    1.740               0.516                              0.389                              1.490
    1.750               0.515                              0.389                              1.486
    1.760               0.514                              0.389                              1.482
    1.770               0.513                              0.389                              1.478
    1.780               0.512                              0.389                              1.474
    1.790               0.511                              0.389                              1.470
    1.800               0.510                              0.388                              1.466
    1.810               0.509                              0.388                              1.462
    1.820               0.509                              0.388                              1.458
    1.830               0.508                              0.388                              1.454
    1.840               0.507                              0.388                              1.451
    1.850               0.506                              0.388                              1.447
    1.860               0.505                              0.388                              1.443
    1.870               0.504                              0.388                              1.440
    1.880               0.503                              0.388                              1.436
    1.890               0.503                              0.388                              1.432
    1.900               0.502                              0.388                              1.429
    1.910               0.501                              0.388                              1.425
    1.920               0.500                              0.388                              1.422
    1.930               0.499                              0.387                              1.418
    1.940               0.499                              0.387                              1.415
    1.950               0.498                              0.387                              1.411
    1.960               0.497                              0.387                              1.408
    1.970               0.496                              0.387                              1.405
    1.980               0.496                              0.387                              1.401
    1.990               0.495                              0.387                              1.398
    2.000               0.494                              0.387                              1.395
    2.010               0.494                              0.387                              1.391
    2.020               0.493                              0.387                              1.388
    2.030               0.492                              0.387                              1.385
    2.040               0.491                              0.387                              1.382
    2.050               0.491                              0.387                              1.379
    2.060               0.490                              0.387                              1.375
    2.070               0.489                              0.387                              1.372
    2.080               0.489                              0.386                              1.369
    2.090               0.488                              0.386                              1.366
    2.100               0.488                              0.386                              1.363
    2.110               0.487                              0.386                              1.360
    2.120               0.486                              0.386                              1.357
    2.130               0.486                              0.386                              1.354
    2.140               0.485                              0.386                              1.351
    2.150               0.484                              0.386                              1.348
    2.160               0.484                              0.386                              1.345
    2.170               0.483                              0.386                              1.343
    2.180               0.483                              0.386                              1.340
    2.190               0.482                              0.386                              1.337
    2.200               0.481                              0.386                              1.334
    2.210               0.481                              0.386                              1.331
    2.220               0.480                              0.386                              1.328
    2.230               0.480                              0.386                              1.326
    2.240               0.479                              0.386                              1.323
    2.250               0.479                              0.386                              1.320
    2.260               0.478                              0.386                              1.318
    2.270               0.478                              0.385                              1.315
    2.280               0.477                              0.385                              1.312
    2.290               0.477                              0.385                              1.310
    2.300               0.476                              0.385                              1.307
    2.310               0.475                              0.385                              1.304
    2.320               0.475                              0.385                              1.302
    2.330               0.474                              0.385                              1.299
    2.340               0.474                              0.385                              1.297
    2.350               0.473                              0.385                              1.294
    2.360               0.473                              0.385                              1.292
    2.370               0.472                              0.385                              1.289
    2.380               0.472                              0.385                              1.287
    2.390               0.472                              0.385                              1.284
    2.400               0.471                              0.385                              1.282
    2.410               0.471                              0.385                              1.279
    2.420               0.470                              0.385                              1.277
    2.430               0.470                              0.385                              1.275
    2.440               0.469                              0.385                              1.272
    2.450               0.469                              0.385                              1.270
    2.460               0.468                              0.385                              1.268
    2.470               0.468                              0.385                              1.265
    2.480               0.467                              0.385                              1.263
    2.490               0.467                              0.385                              1.261
    2.500               0.466                              0.385                              1.258
    2.510               0.466                              0.385                              1.256
    2.520               0.466                              0.384                              1.254
    2.530               0.465                              0.384                              1.252
    2.540               0.465                              0.384                              1.249
    2.550               0.464                              0.384                              1.247
