Height (m)  50th percentile density (kg/m^3)   84th percentile density (kg/m^3)   16th percentile density (kg/m^3) 
    0.200              16.779                             14.808                             12.046
    0.210              16.097                             13.910                             11.721
    0.220              15.473                             13.105                             11.419
    0.230              14.900                             12.380                             11.138
    0.240              14.372                             11.725                             10.875
    0.250              13.884                             11.130                             10.630
    0.260              13.430                             10.587                             10.399
    0.270              13.008                             10.091                             10.182
    0.280              12.615                              9.635                              9.977
    0.290              12.246                              9.216                              9.784
    0.300              11.901                              8.828                              9.600
    0.310              11.576                              8.470                              9.427
    0.320              11.271                              8.137                              9.261
    0.330              10.983                              7.827                              9.104
    0.340              10.710                              7.538                              8.954
    0.350              10.453                              7.269                              8.811
    0.360              10.208                              7.016                              8.674
    0.370               9.976                              6.779                              8.543
    0.380               9.756                              6.557                              8.418
    0.390               9.546                              6.348                              8.298
    0.400               9.345                              6.150                              8.182
    0.410               9.154                              5.964                              8.071
    0.420               8.972                              5.788                              7.964
    0.430               8.797                              5.622                              7.861
    0.440               8.630                              5.464                              7.762
    0.450               8.470                              5.314                              7.666
    0.460               8.316                              5.172                              7.574
    0.470               8.168                              5.037                              7.484
    0.480               8.026                              4.908                              7.398
    0.490               7.890                              4.785                              7.314
    0.500               7.758                              4.668                              7.233
    0.510               7.632                              4.556                              7.155
    0.520               7.510                              4.450                              7.079
    0.530               7.392                              4.348                              7.005
    0.540               7.279                              4.250                              6.934
    0.550               7.169                              4.156                              6.864
    0.560               7.063                              4.066                              6.796
    0.570               6.960                              3.980                              6.731
    0.580               6.861                              3.897                              6.667
    0.590               6.765                              3.818                              6.605
    0.600               6.672                              3.741                              6.544
    0.610               6.581                              3.668                              6.485
    0.620               6.494                              3.597                              6.428
    0.630               6.409                              3.529                              6.372
    0.640               6.326                              3.463                              6.317
    0.650               6.246                              3.400                              6.264
    0.660               6.168                              3.338                              6.212
    0.670               6.092                              3.279                              6.161
    0.680               6.019                              3.222                              6.111
    0.690               5.947                              3.167                              6.063
    0.700               5.877                              3.114                              6.015
    0.710               5.810                              3.062                              5.969
    0.720               5.743                              3.012                              5.924
    0.730               5.679                              2.964                              5.880
    0.740               5.616                              2.917                              5.836
    0.750               5.555                              2.871                              5.794
    0.760               5.495                              2.827                              5.752
    0.770               5.437                              2.785                              5.711
    0.780               5.380                              2.743                              5.671
    0.790               5.325                              2.703                              5.632
    0.800               5.270                              2.664                              5.594
    0.810               5.217                              2.626                              5.556
    0.820               5.166                              2.589                              5.520
    0.830               5.115                              2.553                              5.483
    0.840               5.065                              2.518                              5.448
    0.850               5.017                              2.484                              5.413
    0.860               4.970                              2.451                              5.379
    0.870               4.923                              2.419                              5.345
    0.880               4.878                              2.388                              5.313
    0.890               4.834                              2.357                              5.280
    0.900               4.790                              2.328                              5.248
    0.910               4.748                              2.299                              5.217
    0.920               4.706                              2.271                              5.186
    0.930               4.665                              2.243                              5.156
    0.940               4.625                              2.216                              5.127
    0.950               4.586                              2.190                              5.097
    0.960               4.547                              2.165                              5.069
    0.970               4.509                              2.140                              5.040
    0.980               4.472                              2.115                              5.013
    0.990               4.436                              2.091                              4.985
    1.000               4.400                              2.068                              4.958
    1.010               4.365                              2.046                              4.932
    1.020               4.331                              2.023                              4.906
    1.030               4.297                              2.002                              4.880
    1.040               4.264                              1.981                              4.855
    1.050               4.231                              1.960                              4.830
    1.060               4.199                              1.940                              4.806
    1.070               4.168                              1.920                              4.781
    1.080               4.137                              1.900                              4.758
    1.090               4.107                              1.881                              4.734
    1.100               4.077                              1.863                              4.711
    1.110               4.047                              1.844                              4.688
    1.120               4.019                              1.827                              4.666
    1.130               3.990                              1.809                              4.644
    1.140               3.962                              1.792                              4.622
    1.150               3.935                              1.775                              4.600
    1.160               3.908                              1.759                              4.579
    1.170               3.881                              1.743                              4.558
    1.180               3.855                              1.727                              4.537
    1.190               3.829                              1.711                              4.517
    1.200               3.804                              1.696                              4.497
    1.210               3.779                              1.681                              4.477
    1.220               3.754                              1.667                              4.457
    1.230               3.730                              1.652                              4.438
    1.240               3.706                              1.638                              4.419
    1.250               3.683                              1.625                              4.400
    1.260               3.660                              1.611                              4.381
    1.270               3.637                              1.598                              4.363
    1.280               3.615                              1.585                              4.344
    1.290               3.592                              1.572                              4.326
    1.300               3.571                              1.559                              4.309
    1.310               3.549                              1.547                              4.291
    1.320               3.528                              1.535                              4.274
    1.330               3.507                              1.523                              4.257
    1.340               3.486                              1.511                              4.240
    1.350               3.466                              1.499                              4.223
    1.360               3.446                              1.488                              4.206
    1.370               3.426                              1.477                              4.190
    1.380               3.407                              1.466                              4.174
    1.390               3.387                              1.455                              4.158
    1.400               3.368                              1.445                              4.142
    1.410               3.350                              1.434                              4.127
    1.420               3.331                              1.424                              4.111
    1.430               3.313                              1.414                              4.096
    1.440               3.295                              1.404                              4.081
    1.450               3.277                              1.394                              4.066
    1.460               3.260                              1.385                              4.051
    1.470               3.242                              1.375                              4.036
    1.480               3.225                              1.366                              4.022
    1.490               3.208                              1.357                              4.008
    1.500               3.191                              1.348                              3.994
    1.510               3.175                              1.339                              3.979
    1.520               3.159                              1.330                              3.966
    1.530               3.143                              1.321                              3.952
    1.540               3.127                              1.313                              3.938
    1.550               3.111                              1.305                              3.925
    1.560               3.096                              1.296                              3.912
    1.570               3.080                              1.288                              3.898
    1.580               3.065                              1.280                              3.885
    1.590               3.050                              1.272                              3.872
    1.600               3.035                              1.265                              3.860
    1.610               3.021                              1.257                              3.847
    1.620               3.006                              1.249                              3.834
    1.630               2.992                              1.242                              3.822
    1.640               2.978                              1.235                              3.810
    1.650               2.964                              1.227                              3.798
    1.660               2.950                              1.220                              3.785
    1.670               2.936                              1.213                              3.774
    1.680               2.923                              1.206                              3.762
    1.690               2.910                              1.200                              3.750
    1.700               2.896                              1.193                              3.738
    1.710               2.883                              1.186                              3.727
    1.720               2.870                              1.180                              3.715
    1.730               2.858                              1.173                              3.704
    1.740               2.845                              1.167                              3.693
    1.750               2.832                              1.160                              3.682
    1.760               2.820                              1.154                              3.671
    1.770               2.808                              1.148                              3.660
    1.780               2.796                              1.142                              3.649
    1.790               2.784                              1.136                              3.638
    1.800               2.772                              1.130                              3.628
    1.810               2.760                              1.124                              3.617
    1.820               2.748                              1.119                              3.607
    1.830               2.737                              1.113                              3.597
    1.840               2.726                              1.107                              3.586
    1.850               2.714                              1.102                              3.576
    1.860               2.703                              1.096                              3.566
    1.870               2.692                              1.091                              3.556
    1.880               2.681                              1.086                              3.546
    1.890               2.670                              1.080                              3.536
    1.900               2.660                              1.075                              3.527
    1.910               2.649                              1.070                              3.517
    1.920               2.638                              1.065                              3.507
    1.930               2.628                              1.060                              3.498
    1.940               2.618                              1.055                              3.488
    1.950               2.607                              1.050                              3.479
    1.960               2.597                              1.045                              3.470
    1.970               2.587                              1.041                              3.461
    1.980               2.577                              1.036                              3.451
    1.990               2.568                              1.031                              3.442
    2.000               2.558                              1.027                              3.433
    2.010               2.548                              1.022                              3.424
    2.020               2.539                              1.018                              3.416
    2.030               2.529                              1.013                              3.407
    2.040               2.520                              1.009                              3.398
    2.050               2.510                              1.004                              3.389
    2.060               2.501                              1.000                              3.381
    2.070               2.492                              0.996                              3.372
    2.080               2.483                              0.992                              3.364
    2.090               2.474                              0.987                              3.356
    2.100               2.465                              0.983                              3.347
    2.110               2.456                              0.979                              3.339
    2.120               2.448                              0.975                              3.331
    2.130               2.439                              0.971                              3.323
    2.140               2.430                              0.967                              3.315
    2.150               2.422                              0.963                              3.306
    2.160               2.413                              0.960                              3.299
    2.170               2.405                              0.956                              3.291
