Height (m)  50th percentile velocity (m/s)  84th percentile velocity (m/s)  16th percentile velocity (m/s)
    0.200             30.821                           43.485                           18.314
    0.210             31.116                           43.901                           18.489
    0.220             31.398                           44.299                           18.656
    0.230             31.667                           44.678                           18.816
    0.240             31.924                           45.041                           18.969
    0.250             32.171                           45.390                           19.116
    0.260             32.408                           45.724                           19.257
    0.270             32.637                           46.047                           19.392
    0.280             32.857                           46.357                           19.523
    0.290             33.069                           46.657                           19.649
    0.300             33.274                           46.946                           19.771
    0.310             33.473                           47.226                           19.889
    0.320             33.665                           47.497                           20.003
    0.330             33.851                           47.759                           20.114
    0.340             34.031                           48.014                           20.221
    0.350             34.207                           48.262                           20.325
    0.360             34.377                           48.502                           20.427
    0.370             34.543                           48.736                           20.525
    0.380             34.704                           48.964                           20.621
    0.390             34.861                           49.185                           20.714
    0.400             35.015                           49.402                           20.805
    0.410             35.164                           49.612                           20.894
    0.420             35.310                           49.818                           20.981
    0.430             35.452                           50.019                           21.065
    0.440             35.591                           50.215                           21.148
    0.450             35.727                           50.407                           21.229
    0.460             35.860                           50.595                           21.308
    0.470             35.990                           50.778                           21.385
    0.480             36.118                           50.958                           21.461
    0.490             36.242                           51.134                           21.535
    0.500             36.365                           51.306                           21.608
    0.510             36.484                           51.475                           21.679
    0.520             36.602                           51.641                           21.749
    0.530             36.717                           51.804                           21.817
    0.540             36.830                           51.963                           21.884
    0.550             36.941                           52.120                           21.950
    0.560             37.050                           52.274                           22.015
    0.570             37.157                           52.425                           22.079
    0.580             37.263                           52.573                           22.141
    0.590             37.366                           52.719                           22.203
    0.600             37.468                           52.863                           22.263
    0.610             37.568                           53.004                           22.322
    0.620             37.666                           53.142                           22.381
    0.630             37.763                           53.279                           22.438
    0.640             37.858                           53.413                           22.495
    0.650             37.952                           53.546                           22.551
    0.660             38.044                           53.676                           22.606
    0.670             38.135                           53.804                           22.660
    0.680             38.225                           53.931                           22.713
    0.690             38.313                           54.055                           22.765
    0.700             38.400                           54.178                           22.817
    0.710             38.486                           54.299                           22.868
    0.720             38.571                           54.419                           22.918
    0.730             38.654                           54.536                           22.968
    0.740             38.736                           54.653                           23.017
    0.750             38.818                           54.767                           23.065
    0.760             38.898                           54.880                           23.113
    0.770             38.977                           54.992                           23.160
    0.780             39.055                           55.102                           23.206
    0.790             39.132                           55.211                           23.252
    0.800             39.208                           55.318                           23.297
    0.810             39.283                           55.424                           23.342
    0.820             39.357                           55.529                           23.386
    0.830             39.431                           55.632                           23.429
    0.840             39.503                           55.735                           23.472
    0.850             39.575                           55.836                           23.515
    0.860             39.646                           55.935                           23.557
    0.870             39.716                           56.034                           23.599
    0.880             39.785                           56.132                           23.640
    0.890             39.853                           56.228                           23.680
    0.900             39.921                           56.323                           23.721
    0.910             39.988                           56.418                           23.760
    0.920             40.054                           56.511                           23.800
    0.930             40.119                           56.603                           23.838
    0.940             40.184                           56.695                           23.877
    0.950             40.248                           56.785                           23.915
    0.960             40.311                           56.874                           23.953
    0.970             40.374                           56.963                           23.990
    0.980             40.436                           57.050                           24.027
    0.990             40.497                           57.137                           24.063
    1.000             40.558                           57.223                           24.099
    1.010             40.618                           57.308                           24.135
    1.020             40.678                           57.392                           24.170
    1.030             40.737                           57.475                           24.206
    1.040             40.795                           57.558                           24.240
    1.050             40.853                           57.639                           24.275
    1.060             40.911                           57.720                           24.309
    1.070             40.967                           57.800                           24.342
    1.080             41.024                           57.880                           24.376
    1.090             41.079                           57.958                           24.409
    1.100             41.135                           58.036                           24.442
    1.110             41.189                           58.114                           24.474
    1.120             41.244                           58.190                           24.507
    1.130             41.298                           58.266                           24.539
    1.140             41.351                           58.341                           24.570
    1.150             41.404                           58.416                           24.602
    1.160             41.456                           58.490                           24.633
    1.170             41.508                           58.563                           24.664
    1.180             41.559                           58.636                           24.694
    1.190             41.611                           58.708                           24.725
    1.200             41.661                           58.779                           24.755
    1.210             41.711                           58.850                           24.785
    1.220             41.761                           58.920                           24.814
    1.230             41.811                           58.990                           24.843
    1.240             41.860                           59.059                           24.873
    1.250             41.908                           59.127                           24.901
    1.260             41.956                           59.196                           24.930
    1.270             42.004                           59.263                           24.958
    1.280             42.052                           59.330                           24.987
    1.290             42.099                           59.396                           25.015
    1.300             42.145                           59.462                           25.042
    1.310             42.192                           59.528                           25.070
    1.320             42.238                           59.593                           25.097
    1.330             42.283                           59.657                           25.124
    1.340             42.329                           59.721                           25.151
    1.350             42.374                           59.784                           25.178
    1.360             42.418                           59.847                           25.205
    1.370             42.463                           59.910                           25.231
    1.380             42.507                           59.972                           25.257
    1.390             42.550                           60.034                           25.283
    1.400             42.594                           60.095                           25.309
    1.410             42.637                           60.156                           25.334
    1.420             42.680                           60.216                           25.360
    1.430             42.722                           60.276                           25.385
    1.440             42.764                           60.335                           25.410
    1.450             42.806                           60.394                           25.435
    1.460             42.848                           60.453                           25.460
    1.470             42.889                           60.511                           25.484
    1.480             42.930                           60.569                           25.509
    1.490             42.971                           60.627                           25.533
    1.500             43.011                           60.684                           25.557
    1.510             43.051                           60.740                           25.581
    1.520             43.091                           60.797                           25.604
    1.530             43.131                           60.853                           25.628
    1.540             43.170                           60.908                           25.651
    1.550             43.210                           60.964                           25.675
    1.560             43.248                           61.019                           25.698
    1.570             43.287                           61.073                           25.721
    1.580             43.326                           61.127                           25.744
    1.590             43.364                           61.181                           25.766
    1.600             43.402                           61.235                           25.789
    1.610             43.439                           61.288                           25.811
    1.620             43.477                           61.341                           25.833
    1.630             43.514                           61.393                           25.856
    1.640             43.551                           61.445                           25.878
    1.650             43.588                           61.497                           25.899
    1.660             43.624                           61.549                           25.921
    1.670             43.661                           61.600                           25.943
    1.680             43.697                           61.651                           25.964
    1.690             43.733                           61.702                           25.986
    1.700             43.768                           61.752                           26.007
    1.710             43.804                           61.802                           26.028
    1.720             43.839                           61.852                           26.049
    1.730             43.874                           61.901                           26.070
    1.740             43.909                           61.951                           26.090
    1.750             43.944                           62.000                           26.111
    1.760             43.978                           62.048                           26.131
    1.770             44.013                           62.097                           26.152
    1.780             44.047                           62.145                           26.172
    1.790             44.080                           62.192                           26.192
    1.800             44.114                           62.240                           26.212
    1.810             44.148                           62.287                           26.232
    1.820             44.181                           62.334                           26.252
    1.830             44.214                           62.381                           26.272
    1.840             44.247                           62.428                           26.291
    1.850             44.280                           62.474                           26.311
    1.860             44.313                           62.520                           26.330
    1.870             44.345                           62.566                           26.349
    1.880             44.377                           62.611                           26.369
    1.890             44.409                           62.656                           26.388
    1.900             44.441                           62.702                           26.407
    1.910             44.473                           62.746                           26.425
    1.920             44.505                           62.791                           26.444
    1.930             44.536                           62.835                           26.463
    1.940             44.567                           62.879                           26.482
    1.950             44.598                           62.923                           26.500
    1.960             44.629                           62.967                           26.518
    1.970             44.660                           63.010                           26.537
    1.980             44.691                           63.054                           26.555
    1.990             44.721                           63.097                           26.573
    2.000             44.752                           63.139                           26.591
    2.010             44.782                           63.182                           26.609
    2.020             44.812                           63.224                           26.627
    2.030             44.842                           63.266                           26.645
    2.040             44.871                           63.308                           26.662
    2.050             44.901                           63.350                           26.680
    2.060             44.930                           63.392                           26.697
    2.070             44.960                           63.433                           26.715
    2.080             44.989                           63.474                           26.732
    2.090             45.018                           63.515                           26.749
    2.100             45.047                           63.556                           26.766
    2.110             45.076                           63.596                           26.783
    2.120             45.104                           63.637                           26.800
    2.130             45.133                           63.677                           26.817
    2.140             45.161                           63.717                           26.834
    2.150             45.189                           63.757                           26.851
    2.160             45.217                           63.796                           26.868
    2.170             45.245                           63.836                           26.884
    2.180             45.273                           63.875                           26.901
    2.190             45.301                           63.914                           26.917
    2.200             45.328                           63.953                           26.934
    2.210             45.356                           63.992                           26.950
    2.220             45.383                           64.030                           26.966
    2.230             45.410                           64.069                           26.982
    2.240             45.437                           64.107                           26.998
    2.250             45.464                           64.145                           27.014
    2.260             45.491                           64.183                           27.030
    2.270             45.518                           64.220                           27.046
    2.280             45.544                           64.258                           27.062
