Height (m)  50th percentile particle concentration (-)  84th percentile particle concentration (-)  16th percentile particle concentration (-)
    0.230             0.70282E-03                                  0.19959E-04                                  0.46044E-03
    0.240             0.63851E-03                                  0.17343E-04                                  0.42835E-03
    0.250             0.58235E-03                                  0.15157E-04                                  0.39968E-03
    0.260             0.53305E-03                                  0.13316E-04                                  0.37394E-03
    0.270             0.48956E-03                                  0.11755E-04                                  0.35074E-03
    0.280             0.45100E-03                                  0.10424E-04                                  0.32974E-03
    0.290             0.41667E-03                                  0.92822E-05                                  0.31068E-03
    0.300             0.38599E-03                                  0.82980E-05                                  0.29330E-03
    0.310             0.35846E-03                                  0.74451E-05                                  0.27742E-03
    0.320             0.33368E-03                                  0.67028E-05                                  0.26287E-03
    0.330             0.31129E-03                                  0.60538E-05                                  0.24949E-03
    0.340             0.29101E-03                                  0.54841E-05                                  0.23716E-03
    0.350             0.27258E-03                                  0.49821E-05                                  0.22577E-03
    0.360             0.25578E-03                                  0.45382E-05                                  0.21523E-03
    0.370             0.24044E-03                                  0.41444E-05                                  0.20545E-03
    0.380             0.22639E-03                                  0.37937E-05                                  0.19635E-03
    0.390             0.21349E-03                                  0.34807E-05                                  0.18788E-03
    0.400             0.20163E-03                                  0.32003E-05                                  0.17997E-03
    0.410             0.19069E-03                                  0.29486E-05                                  0.17258E-03
    0.420             0.18059E-03                                  0.27220E-05                                  0.16567E-03
    0.430             0.17124E-03                                  0.25174E-05                                  0.15918E-03
    0.440             0.16257E-03                                  0.23324E-05                                  0.15308E-03
    0.450             0.15452E-03                                  0.21646E-05                                  0.14735E-03
    0.460             0.14704E-03                                  0.20121E-05                                  0.14195E-03
    0.470             0.14006E-03                                  0.18733E-05                                  0.13686E-03
    0.480             0.13355E-03                                  0.17467E-05                                  0.13206E-03
    0.490             0.12747E-03                                  0.16309E-05                                  0.12751E-03
    0.500             0.12178E-03                                  0.15249E-05                                  0.12321E-03
    0.510             0.11645E-03                                  0.14276E-05                                  0.11914E-03
    0.520             0.11145E-03                                  0.13382E-05                                  0.11527E-03
    0.530             0.10675E-03                                  0.12560E-05                                  0.11160E-03
    0.540             0.10233E-03                                  0.11802E-05                                  0.10811E-03
    0.550             0.98172E-04                                  0.11102E-05                                  0.10480E-03
    0.560             0.94251E-04                                  0.10454E-05                                  0.10164E-03
    0.570             0.90552E-04                                  0.98552E-06                                  0.98626E-04
    0.580             0.87058E-04                                  0.92998E-06                                  0.95755E-04
    0.590             0.83756E-04                                  0.87842E-06                                  0.93015E-04
    0.600             0.80630E-04                                  0.83050E-06                                  0.90396E-04
    0.610             0.77670E-04                                  0.78591E-06                                  0.87893E-04
    0.620             0.74864E-04                                  0.74437E-06                                  0.85499E-04
    0.630             0.72201E-04                                  0.70562E-06                                  0.83206E-04
    0.640             0.69673E-04                                  0.66945E-06                                  0.81009E-04
    0.650             0.67270E-04                                  0.63563E-06                                  0.78903E-04
    0.660             0.64984E-04                                  0.60400E-06                                  0.76883E-04
    0.670             0.62809E-04                                  0.57437E-06                                  0.74943E-04
    0.680             0.60737E-04                                  0.54659E-06                                  0.73080E-04
    0.690             0.58762E-04                                  0.52052E-06                                  0.71289E-04
    0.700             0.56877E-04                                  0.49604E-06                                  0.69568E-04
    0.710             0.55079E-04                                  0.47303E-06                                  0.67911E-04
    0.720             0.53361E-04                                  0.45137E-06                                  0.66316E-04
    0.730             0.51720E-04                                  0.43098E-06                                  0.64779E-04
    0.740             0.50150E-04                                  0.41177E-06                                  0.63299E-04
    0.750             0.48647E-04                                  0.39364E-06                                  0.61871E-04
    0.760             0.47209E-04                                  0.37653E-06                                  0.60494E-04
    0.770             0.45831E-04                                  0.36037E-06                                  0.59165E-04
    0.780             0.44510E-04                                  0.34510E-06                                  0.57881E-04
    0.790             0.43243E-04                                  0.33065E-06                                  0.56642E-04
    0.800             0.42027E-04                                  0.31697E-06                                  0.55443E-04
    0.810             0.40860E-04                                  0.30401E-06                                  0.54285E-04
    0.820             0.39739E-04                                  0.29173E-06                                  0.53165E-04
    0.830             0.38661E-04                                  0.28008E-06                                  0.52080E-04
    0.840             0.37625E-04                                  0.26903E-06                                  0.51031E-04
    0.850             0.36629E-04                                  0.25853E-06                                  0.50014E-04
    0.860             0.35670E-04                                  0.24855E-06                                  0.49030E-04
    0.870             0.34746E-04                                  0.23906E-06                                  0.48076E-04
    0.880             0.33857E-04                                  0.23004E-06                                  0.47151E-04
    0.890             0.33000E-04                                  0.22144E-06                                  0.46253E-04
    0.900             0.32174E-04                                  0.21326E-06                                  0.45383E-04
    0.910             0.31377E-04                                  0.20547E-06                                  0.44538E-04
    0.920             0.30608E-04                                  0.19803E-06                                  0.43718E-04
    0.930             0.29866E-04                                  0.19094E-06                                  0.42922E-04
    0.940             0.29150E-04                                  0.18418E-06                                  0.42149E-04
    0.950             0.28458E-04                                  0.17771E-06                                  0.41397E-04
    0.960             0.27789E-04                                  0.17154E-06                                  0.40666E-04
    0.970             0.27143E-04                                  0.16564E-06                                  0.39956E-04
    0.980             0.26518E-04                                  0.16000E-06                                  0.39265E-04
    0.990             0.25913E-04                                  0.15461E-06                                  0.38593E-04
    1.000             0.25329E-04                                  0.14944E-06                                  0.37939E-04
    1.010             0.24762E-04                                  0.14450E-06                                  0.37303E-04
    1.020             0.24214E-04                                  0.13976E-06                                  0.36683E-04
    1.030             0.23683E-04                                  0.13522E-06                                  0.36079E-04
    1.040             0.23169E-04                                  0.13087E-06                                  0.35491E-04
    1.050             0.22671E-04                                  0.12670E-06                                  0.34918E-04
    1.060             0.22188E-04                                  0.12270E-06                                  0.34360E-04
    1.070             0.21719E-04                                  0.11886E-06                                  0.33815E-04
    1.080             0.21265E-04                                  0.11517E-06                                  0.33284E-04
    1.090             0.20824E-04                                  0.11163E-06                                  0.32767E-04
    1.100             0.20396E-04                                  0.10822E-06                                  0.32262E-04
    1.110             0.19980E-04                                  0.10495E-06                                  0.31769E-04
    1.120             0.19577E-04                                  0.10180E-06                                  0.31288E-04
    1.130             0.19185E-04                                  0.98779E-07                                  0.30818E-04
    1.140             0.18804E-04                                  0.95867E-07                                  0.30360E-04
    1.150             0.18435E-04                                  0.93065E-07                                  0.29912E-04
    1.160             0.18075E-04                                  0.90368E-07                                  0.29474E-04
    1.170             0.17725E-04                                  0.87770E-07                                  0.29047E-04
    1.180             0.17386E-04                                  0.85266E-07                                  0.28630E-04
    1.190             0.17055E-04                                  0.82854E-07                                  0.28221E-04
    1.200             0.16733E-04                                  0.80529E-07                                  0.27822E-04
    1.210             0.16420E-04                                  0.78286E-07                                  0.27432E-04
    1.220             0.16115E-04                                  0.76123E-07                                  0.27051E-04
    1.230             0.15819E-04                                  0.74037E-07                                  0.26678E-04
    1.240             0.15530E-04                                  0.72022E-07                                  0.26313E-04
    1.250             0.15248E-04                                  0.70078E-07                                  0.25955E-04
    1.260             0.14974E-04                                  0.68200E-07                                  0.25606E-04
    1.270             0.14707E-04                                  0.66387E-07                                  0.25264E-04
    1.280             0.14446E-04                                  0.64634E-07                                  0.24929E-04
    1.290             0.14193E-04                                  0.62941E-07                                  0.24601E-04
    1.300             0.13945E-04                                  0.61304E-07                                  0.24279E-04
    1.310             0.13704E-04                                  0.59721E-07                                  0.23965E-04
    1.320             0.13468E-04                                  0.58190E-07                                  0.23657E-04
    1.330             0.13239E-04                                  0.56709E-07                                  0.23355E-04
    1.340             0.13015E-04                                  0.55276E-07                                  0.23059E-04
    1.350             0.12796E-04                                  0.53889E-07                                  0.22769E-04
    1.360             0.12582E-04                                  0.52546E-07                                  0.22485E-04
    1.370             0.12374E-04                                  0.51245E-07                                  0.22206E-04
    1.380             0.12171E-04                                  0.49986E-07                                  0.21933E-04
    1.390             0.11972E-04                                  0.48766E-07                                  0.21665E-04
    1.400             0.11778E-04                                  0.47583E-07                                  0.21402E-04
    1.410             0.11588E-04                                  0.46437E-07                                  0.21144E-04
    1.420             0.11403E-04                                  0.45327E-07                                  0.20891E-04
    1.430             0.11222E-04                                  0.44249E-07                                  0.20643E-04
    1.440             0.11045E-04                                  0.43205E-07                                  0.20400E-04
    1.450             0.10872E-04                                  0.42192E-07                                  0.20161E-04
    1.460             0.10703E-04                                  0.41208E-07                                  0.19926E-04
    1.470             0.10537E-04                                  0.40254E-07                                  0.19696E-04
    1.480             0.10375E-04                                  0.39328E-07                                  0.19470E-04
    1.490             0.10217E-04                                  0.38429E-07                                  0.19248E-04
    1.500             0.10062E-04                                  0.37557E-07                                  0.19030E-04
    1.510             0.99110E-05                                  0.36709E-07                                  0.18816E-04
    1.520             0.97627E-05                                  0.35885E-07                                  0.18605E-04
    1.530             0.96177E-05                                  0.35085E-07                                  0.18399E-04
    1.540             0.94757E-05                                  0.34308E-07                                  0.18196E-04
    1.550             0.93366E-05                                  0.33552E-07                                  0.17996E-04
    1.560             0.92005E-05                                  0.32818E-07                                  0.17800E-04
    1.570             0.90672E-05                                  0.32104E-07                                  0.17608E-04
    1.580             0.89366E-05                                  0.31410E-07                                  0.17418E-04
    1.590             0.88088E-05                                  0.30734E-07                                  0.17232E-04
    1.600             0.86835E-05                                  0.30077E-07                                  0.17049E-04
    1.610             0.85607E-05                                  0.29438E-07                                  0.16869E-04
    1.620             0.84405E-05                                  0.28816E-07                                  0.16692E-04
    1.630             0.83226E-05                                  0.28211E-07                                  0.16518E-04
    1.640             0.82070E-05                                  0.27622E-07                                  0.16347E-04
    1.650             0.80938E-05                                  0.27048E-07                                  0.16178E-04
    1.660             0.79828E-05                                  0.26490E-07                                  0.16013E-04
    1.670             0.78739E-05                                  0.25946E-07                                  0.15850E-04
    1.680             0.77671E-05                                  0.25416E-07                                  0.15689E-04
    1.690             0.76624E-05                                  0.24900E-07                                  0.15531E-04
    1.700             0.75598E-05                                  0.24398E-07                                  0.15376E-04
    1.710             0.74590E-05                                  0.23908E-07                                  0.15223E-04
    1.720             0.73602E-05                                  0.23430E-07                                  0.15073E-04
    1.730             0.72632E-05                                  0.22965E-07                                  0.14924E-04
    1.740             0.71681E-05                                  0.22511E-07                                  0.14779E-04
    1.750             0.70747E-05                                  0.22069E-07                                  0.14635E-04
    1.760             0.69831E-05                                  0.21637E-07                                  0.14494E-04
    1.770             0.68931E-05                                  0.21217E-07                                  0.14354E-04
    1.780             0.68048E-05                                  0.20806E-07                                  0.14217E-04
    1.790             0.67181E-05                                  0.20406E-07                                  0.14082E-04
    1.800             0.66330E-05                                  0.20016E-07                                  0.13949E-04
    1.810             0.65494E-05                                  0.19635E-07                                  0.13818E-04
    1.820             0.64673E-05                                  0.19263E-07                                  0.13689E-04
