Height (m)  50th percentile density (kg/m^3)   84th percentile density (kg/m^3)   16th percentile density (kg/m^3) 
    0.200              19.816                             13.490                             20.015
    0.210              19.038                             13.126                             18.832
    0.220              18.326                             12.788                             17.770
    0.230              17.671                             12.473                             16.812
    0.240              17.067                             12.180                             15.944
    0.250              16.506                             11.905                             15.154
    0.260              15.986                             11.647                             14.433
    0.270              15.500                             11.404                             13.772
    0.280              15.047                             11.175                             13.164
    0.290              14.623                             10.958                             12.604
    0.300              14.224                             10.753                             12.085
    0.310              13.849                             10.558                             11.605
    0.320              13.496                             10.373                             11.158
    0.330              13.162                             10.197                             10.742
    0.340              12.847                             10.030                             10.354
    0.350              12.547                              9.869                              9.990
    0.360              12.264                              9.716                              9.650
    0.370              11.994                              9.569                              9.330
    0.380              11.737                              9.429                              9.029
    0.390              11.493                              9.294                              8.746
    0.400              11.259                              9.165                              8.479
    0.410              11.037                              9.040                              8.226
    0.420              10.823                              8.920                              7.987
    0.430              10.619                              8.805                              7.761
    0.440              10.424                              8.694                              7.546
    0.450              10.236                              8.586                              7.342
    0.460              10.056                              8.483                              7.148
    0.470               9.883                              8.383                              6.964
    0.480               9.717                              8.286                              6.788
    0.490               9.557                              8.192                              6.620
    0.500               9.403                              8.101                              6.460
    0.510               9.254                              8.013                              6.307
    0.520               9.110                              7.928                              6.160
    0.530               8.972                              7.845                              6.020
    0.540               8.838                              7.765                              5.886
    0.550               8.709                              7.687                              5.757
    0.560               8.584                              7.611                              5.634
    0.570               8.463                              7.538                              5.515
    0.580               8.346                              7.466                              5.401
    0.590               8.232                              7.396                              5.291
    0.600               8.122                              7.328                              5.186
    0.610               8.015                              7.262                              5.084
    0.620               7.912                              7.198                              4.986
    0.630               7.811                              7.135                              4.892
    0.640               7.713                              7.074                              4.801
    0.650               7.618                              7.014                              4.713
    0.660               7.526                              6.956                              4.629
    0.670               7.436                              6.899                              4.547
    0.680               7.349                              6.843                              4.467
    0.690               7.264                              6.788                              4.391
    0.700               7.181                              6.735                              4.317
    0.710               7.100                              6.683                              4.245
    0.720               7.022                              6.633                              4.175
    0.730               6.945                              6.583                              4.108
    0.740               6.870                              6.534                              4.043
    0.750               6.797                              6.486                              3.979
    0.760               6.726                              6.440                              3.918
    0.770               6.657                              6.394                              3.858
    0.780               6.589                              6.349                              3.801
    0.790               6.523                              6.305                              3.744
    0.800               6.458                              6.262                              3.690
    0.810               6.395                              6.220                              3.637
    0.820               6.333                              6.179                              3.585
    0.830               6.272                              6.138                              3.535
    0.840               6.213                              6.098                              3.486
    0.850               6.155                              6.059                              3.438
    0.860               6.099                              6.021                              3.392
    0.870               6.043                              5.983                              3.347
    0.880               5.989                              5.946                              3.303
    0.890               5.936                              5.910                              3.260
    0.900               5.884                              5.874                              3.219
    0.910               5.833                              5.839                              3.178
    0.920               5.783                              5.805                              3.138
    0.930               5.734                              5.771                              3.100
    0.940               5.686                              5.737                              3.062
    0.950               5.638                              5.705                              3.025
    0.960               5.592                              5.672                              2.989
    0.970               5.547                              5.641                              2.954
    0.980               5.502                              5.610                              2.919
    0.990               5.459                              5.579                              2.886
    1.000               5.416                              5.549                              2.853
    1.010               5.374                              5.519                              2.821
    1.020               5.332                              5.490                              2.790
    1.030               5.292                              5.461                              2.759
    1.040               5.252                              5.432                              2.729
    1.050               5.212                              5.404                              2.700
    1.060               5.174                              5.377                              2.671
    1.070               5.136                              5.350                              2.643
    1.080               5.099                              5.323                              2.615
    1.090               5.062                              5.297                              2.589
    1.100               5.026                              5.271                              2.562
    1.110               4.991                              5.245                              2.536
    1.120               4.956                              5.220                              2.511
    1.130               4.922                              5.195                              2.486
    1.140               4.888                              5.170                              2.462
    1.150               4.855                              5.146                              2.438
    1.160               4.822                              5.122                              2.415
    1.170               4.790                              5.099                              2.392
    1.180               4.758                              5.075                              2.369
    1.190               4.727                              5.052                              2.347
    1.200               4.697                              5.030                              2.326
    1.210               4.666                              5.007                              2.305
    1.220               4.637                              4.985                              2.284
    1.230               4.607                              4.963                              2.263
    1.240               4.579                              4.942                              2.243
    1.250               4.550                              4.921                              2.224
    1.260               4.522                              4.900                              2.204
    1.270               4.494                              4.879                              2.185
    1.280               4.467                              4.859                              2.167
    1.290               4.440                              4.838                              2.148
    1.300               4.414                              4.818                              2.130
    1.310               4.388                              4.799                              2.113
    1.320               4.362                              4.779                              2.095
    1.330               4.337                              4.760                              2.078
    1.340               4.312                              4.741                              2.061
    1.350               4.287                              4.722                              2.045
    1.360               4.263                              4.704                              2.029
    1.370               4.238                              4.685                              2.013
    1.380               4.215                              4.667                              1.997
    1.390               4.191                              4.649                              1.981
    1.400               4.168                              4.631                              1.966
    1.410               4.145                              4.614                              1.951
    1.420               4.123                              4.596                              1.937
    1.430               4.101                              4.579                              1.922
    1.440               4.079                              4.562                              1.908
    1.450               4.057                              4.545                              1.894
    1.460               4.036                              4.529                              1.880
    1.470               4.015                              4.512                              1.866
    1.480               3.994                              4.496                              1.853
    1.490               3.973                              4.480                              1.840
    1.500               3.953                              4.464                              1.827
    1.510               3.933                              4.448                              1.814
    1.520               3.913                              4.433                              1.802
    1.530               3.893                              4.417                              1.789
    1.540               3.874                              4.402                              1.777
    1.550               3.855                              4.387                              1.765
    1.560               3.836                              4.372                              1.753
    1.570               3.817                              4.357                              1.741
    1.580               3.799                              4.343                              1.730
    1.590               3.780                              4.328                              1.718
    1.600               3.762                              4.314                              1.707
    1.610               3.744                              4.299                              1.696
    1.620               3.727                              4.285                              1.685
    1.630               3.709                              4.271                              1.675
    1.640               3.692                              4.257                              1.664
    1.650               3.675                              4.244                              1.654
    1.660               3.658                              4.230                              1.643
    1.670               3.641                              4.217                              1.633
    1.680               3.625                              4.203                              1.623
    1.690               3.608                              4.190                              1.613
    1.700               3.592                              4.177                              1.603
    1.710               3.576                              4.164                              1.594
    1.720               3.560                              4.151                              1.584
    1.730               3.545                              4.139                              1.575
    1.740               3.529                              4.126                              1.566
    1.750               3.514                              4.114                              1.557
    1.760               3.499                              4.101                              1.548
    1.770               3.484                              4.089                              1.539
    1.780               3.469                              4.077                              1.530
    1.790               3.454                              4.065                              1.521
    1.800               3.440                              4.053                              1.513
    1.810               3.425                              4.041                              1.504
    1.820               3.411                              4.029                              1.496
    1.830               3.397                              4.018                              1.488
    1.840               3.383                              4.006                              1.480
    1.850               3.369                              3.995                              1.472
    1.860               3.355                              3.983                              1.464
    1.870               3.342                              3.972                              1.456
    1.880               3.328                              3.961                              1.448
    1.890               3.315                              3.950                              1.440
    1.900               3.302                              3.939                              1.433
    1.910               3.289                              3.928                              1.425
    1.920               3.276                              3.917                              1.418
    1.930               3.263                              3.906                              1.411
    1.940               3.250                              3.896                              1.404
    1.950               3.238                              3.885                              1.396
    1.960               3.225                              3.875                              1.389
    1.970               3.213                              3.865                              1.382
    1.980               3.201                              3.854                              1.376
    1.990               3.189                              3.844                              1.369
    2.000               3.177                              3.834                              1.362
    2.010               3.165                              3.824                              1.355
    2.020               3.153                              3.814                              1.349
    2.030               3.141                              3.804                              1.342
    2.040               3.130                              3.794                              1.336
    2.050               3.118                              3.785                              1.330
    2.060               3.107                              3.775                              1.323
    2.070               3.096                              3.765                              1.317
    2.080               3.084                              3.756                              1.311
    2.090               3.073                              3.746                              1.305
    2.100               3.062                              3.737                              1.299
    2.110               3.051                              3.728                              1.293
    2.120               3.041                              3.718                              1.287
    2.130               3.030                              3.709                              1.281
    2.140               3.019                              3.700                              1.275
    2.150               3.009                              3.691                              1.270
    2.160               2.998                              3.682                              1.264
    2.170               2.988                              3.673                              1.259
