Height (m)  50th percentile particle concentration (-)  84th percentile particle concentration (-)  16th percentile particle concentration (-)
    0.200             0.10045E-01                                  0.70380E-02                                  0.93847E-02
    0.210             0.96344E-02                                  0.68403E-02                                  0.88087E-02
    0.220             0.92584E-02                                  0.66569E-02                                  0.82924E-02
    0.230             0.89128E-02                                  0.64863E-02                                  0.78271E-02
    0.240             0.85940E-02                                  0.63270E-02                                  0.74059E-02
    0.250             0.82989E-02                                  0.61779E-02                                  0.70232E-02
    0.260             0.80249E-02                                  0.60379E-02                                  0.66739E-02
    0.270             0.77698E-02                                  0.59062E-02                                  0.63541E-02
    0.280             0.75315E-02                                  0.57820E-02                                  0.60604E-02
    0.290             0.73086E-02                                  0.56647E-02                                  0.57898E-02
    0.300             0.70994E-02                                  0.55535E-02                                  0.55397E-02
    0.310             0.69028E-02                                  0.54481E-02                                  0.53080E-02
    0.320             0.67176E-02                                  0.53479E-02                                  0.50928E-02
    0.330             0.65428E-02                                  0.52526E-02                                  0.48925E-02
    0.340             0.63775E-02                                  0.51617E-02                                  0.47057E-02
    0.350             0.62210E-02                                  0.50750E-02                                  0.45310E-02
    0.360             0.60726E-02                                  0.49921E-02                                  0.43674E-02
    0.370             0.59317E-02                                  0.49128E-02                                  0.42140E-02
    0.380             0.57976E-02                                  0.48368E-02                                  0.40697E-02
    0.390             0.56699E-02                                  0.47639E-02                                  0.39339E-02
    0.400             0.55481E-02                                  0.46938E-02                                  0.38058E-02
    0.410             0.54318E-02                                  0.46265E-02                                  0.36849E-02
    0.420             0.53207E-02                                  0.45618E-02                                  0.35705E-02
    0.430             0.52144E-02                                  0.44995E-02                                  0.34622E-02
    0.440             0.51126E-02                                  0.44394E-02                                  0.33596E-02
    0.450             0.50149E-02                                  0.43814E-02                                  0.32621E-02
    0.460             0.49212E-02                                  0.43254E-02                                  0.31695E-02
    0.470             0.48312E-02                                  0.42713E-02                                  0.30814E-02
    0.480             0.47447E-02                                  0.42190E-02                                  0.29976E-02
    0.490             0.46614E-02                                  0.41684E-02                                  0.29176E-02
    0.500             0.45813E-02                                  0.41195E-02                                  0.28412E-02
    0.510             0.45040E-02                                  0.40720E-02                                  0.27683E-02
    0.520             0.44296E-02                                  0.40260E-02                                  0.26986E-02
    0.530             0.43577E-02                                  0.39814E-02                                  0.26320E-02
    0.540             0.42883E-02                                  0.39380E-02                                  0.25681E-02
    0.550             0.42212E-02                                  0.38960E-02                                  0.25069E-02
    0.560             0.41563E-02                                  0.38551E-02                                  0.24482E-02
    0.570             0.40936E-02                                  0.38154E-02                                  0.23918E-02
    0.580             0.40329E-02                                  0.37767E-02                                  0.23377E-02
    0.590             0.39740E-02                                  0.37391E-02                                  0.22857E-02
    0.600             0.39170E-02                                  0.37025E-02                                  0.22357E-02
    0.610             0.38618E-02                                  0.36668E-02                                  0.21875E-02
    0.620             0.38082E-02                                  0.36321E-02                                  0.21411E-02
    0.630             0.37561E-02                                  0.35982E-02                                  0.20964E-02
    0.640             0.37056E-02                                  0.35652E-02                                  0.20533E-02
    0.650             0.36565E-02                                  0.35330E-02                                  0.20117E-02
    0.660             0.36088E-02                                  0.35015E-02                                  0.19716E-02
    0.670             0.35624E-02                                  0.34708E-02                                  0.19328E-02
    0.680             0.35173E-02                                  0.34408E-02                                  0.18954E-02
    0.690             0.34734E-02                                  0.34115E-02                                  0.18592E-02
    0.700             0.34306E-02                                  0.33829E-02                                  0.18241E-02
    0.710             0.33890E-02                                  0.33549E-02                                  0.17902E-02
    0.720             0.33484E-02                                  0.33275E-02                                  0.17574E-02
    0.730             0.33089E-02                                  0.33007E-02                                  0.17256E-02
    0.740             0.32703E-02                                  0.32745E-02                                  0.16948E-02
    0.750             0.32327E-02                                  0.32489E-02                                  0.16650E-02
    0.760             0.31961E-02                                  0.32237E-02                                  0.16360E-02
    0.770             0.31603E-02                                  0.31991E-02                                  0.16079E-02
    0.780             0.31253E-02                                  0.31750E-02                                  0.15806E-02
    0.790             0.30912E-02                                  0.31514E-02                                  0.15541E-02
    0.800             0.30579E-02                                  0.31283E-02                                  0.15284E-02
    0.810             0.30253E-02                                  0.31056E-02                                  0.15034E-02
    0.820             0.29935E-02                                  0.30833E-02                                  0.14791E-02
    0.830             0.29624E-02                                  0.30615E-02                                  0.14555E-02
    0.840             0.29320E-02                                  0.30401E-02                                  0.14325E-02
    0.850             0.29022E-02                                  0.30190E-02                                  0.14101E-02
    0.860             0.28731E-02                                  0.29984E-02                                  0.13884E-02
    0.870             0.28446E-02                                  0.29781E-02                                  0.13672E-02
    0.880             0.28167E-02                                  0.29583E-02                                  0.13465E-02
    0.890             0.27893E-02                                  0.29387E-02                                  0.13264E-02
    0.900             0.27626E-02                                  0.29195E-02                                  0.13068E-02
    0.910             0.27364E-02                                  0.29007E-02                                  0.12877E-02
    0.920             0.27107E-02                                  0.28821E-02                                  0.12691E-02
    0.930             0.26855E-02                                  0.28639E-02                                  0.12509E-02
    0.940             0.26608E-02                                  0.28460E-02                                  0.12332E-02
    0.950             0.26366E-02                                  0.28284E-02                                  0.12159E-02
    0.960             0.26129E-02                                  0.28111E-02                                  0.11991E-02
    0.970             0.25896E-02                                  0.27940E-02                                  0.11826E-02
    0.980             0.25668E-02                                  0.27772E-02                                  0.11665E-02
    0.990             0.25443E-02                                  0.27607E-02                                  0.11508E-02
    1.000             0.25224E-02                                  0.27445E-02                                  0.11354E-02
    1.010             0.25008E-02                                  0.27285E-02                                  0.11204E-02
    1.020             0.24796E-02                                  0.27128E-02                                  0.11057E-02
    1.030             0.24587E-02                                  0.26973E-02                                  0.10914E-02
    1.040             0.24383E-02                                  0.26821E-02                                  0.10773E-02
    1.050             0.24182E-02                                  0.26670E-02                                  0.10636E-02
    1.060             0.23985E-02                                  0.26522E-02                                  0.10502E-02
    1.070             0.23791E-02                                  0.26377E-02                                  0.10371E-02
    1.080             0.23600E-02                                  0.26233E-02                                  0.10242E-02
    1.090             0.23413E-02                                  0.26091E-02                                  0.10116E-02
    1.100             0.23229E-02                                  0.25952E-02                                  0.99928E-03
    1.110             0.23047E-02                                  0.25814E-02                                  0.98721E-03
    1.120             0.22869E-02                                  0.25679E-02                                  0.97539E-03
    1.130             0.22694E-02                                  0.25545E-02                                  0.96381E-03
    1.140             0.22522E-02                                  0.25413E-02                                  0.95247E-03
    1.150             0.22352E-02                                  0.25283E-02                                  0.94134E-03
    1.160             0.22185E-02                                  0.25155E-02                                  0.93044E-03
    1.170             0.22021E-02                                  0.25028E-02                                  0.91976E-03
    1.180             0.21859E-02                                  0.24903E-02                                  0.90928E-03
    1.190             0.21700E-02                                  0.24780E-02                                  0.89900E-03
    1.200             0.21543E-02                                  0.24659E-02                                  0.88893E-03
    1.210             0.21389E-02                                  0.24539E-02                                  0.87904E-03
    1.220             0.21237E-02                                  0.24420E-02                                  0.86934E-03
    1.230             0.21088E-02                                  0.24303E-02                                  0.85982E-03
    1.240             0.20940E-02                                  0.24188E-02                                  0.85047E-03
    1.250             0.20795E-02                                  0.24074E-02                                  0.84130E-03
    1.260             0.20652E-02                                  0.23962E-02                                  0.83230E-03
    1.270             0.20511E-02                                  0.23851E-02                                  0.82346E-03
    1.280             0.20372E-02                                  0.23741E-02                                  0.81478E-03
    1.290             0.20235E-02                                  0.23632E-02                                  0.80625E-03
    1.300             0.20100E-02                                  0.23525E-02                                  0.79787E-03
    1.310             0.19967E-02                                  0.23420E-02                                  0.78964E-03
    1.320             0.19835E-02                                  0.23315E-02                                  0.78156E-03
    1.330             0.19706E-02                                  0.23212E-02                                  0.77361E-03
    1.340             0.19578E-02                                  0.23110E-02                                  0.76580E-03
    1.350             0.19452E-02                                  0.23009E-02                                  0.75812E-03
    1.360             0.19328E-02                                  0.22909E-02                                  0.75058E-03
    1.370             0.19206E-02                                  0.22811E-02                                  0.74316E-03
    1.380             0.19085E-02                                  0.22714E-02                                  0.73586E-03
    1.390             0.18966E-02                                  0.22617E-02                                  0.72869E-03
    1.400             0.18848E-02                                  0.22522E-02                                  0.72163E-03
    1.410             0.18732E-02                                  0.22428E-02                                  0.71469E-03
    1.420             0.18617E-02                                  0.22335E-02                                  0.70786E-03
    1.430             0.18504E-02                                  0.22243E-02                                  0.70114E-03
    1.440             0.18392E-02                                  0.22152E-02                                  0.69452E-03
    1.450             0.18282E-02                                  0.22062E-02                                  0.68802E-03
    1.460             0.18173E-02                                  0.21973E-02                                  0.68161E-03
    1.470             0.18066E-02                                  0.21885E-02                                  0.67531E-03
    1.480             0.17960E-02                                  0.21798E-02                                  0.66910E-03
    1.490             0.17855E-02                                  0.21711E-02                                  0.66299E-03
    1.500             0.17751E-02                                  0.21626E-02                                  0.65697E-03
    1.510             0.17649E-02                                  0.21542E-02                                  0.65105E-03
    1.520             0.17548E-02                                  0.21458E-02                                  0.64521E-03
    1.530             0.17448E-02                                  0.21375E-02                                  0.63947E-03
    1.540             0.17350E-02                                  0.21294E-02                                  0.63380E-03
    1.550             0.17252E-02                                  0.21213E-02                                  0.62823E-03
    1.560             0.17156E-02                                  0.21132E-02                                  0.62273E-03
    1.570             0.17061E-02                                  0.21053E-02                                  0.61732E-03
    1.580             0.16967E-02                                  0.20975E-02                                  0.61198E-03
    1.590             0.16874E-02                                  0.20897E-02                                  0.60672E-03
    1.600             0.16782E-02                                  0.20820E-02                                  0.60154E-03
    1.610             0.16692E-02                                  0.20743E-02                                  0.59643E-03
    1.620             0.16602E-02                                  0.20668E-02                                  0.59140E-03
    1.630             0.16513E-02                                  0.20593E-02                                  0.58643E-03
    1.640             0.16425E-02                                  0.20519E-02                                  0.58154E-03
    1.650             0.16339E-02                                  0.20446E-02                                  0.57671E-03
    1.660             0.16253E-02                                  0.20373E-02                                  0.57195E-03
    1.670             0.16168E-02                                  0.20301E-02                                  0.56726E-03
    1.680             0.16084E-02                                  0.20230E-02                                  0.56263E-03
    1.690             0.16001E-02                                  0.20159E-02                                  0.55806E-03
    1.700             0.15919E-02                                  0.20089E-02                                  0.55356E-03
    1.710             0.15838E-02                                  0.20020E-02                                  0.54912E-03
    1.720             0.15758E-02                                  0.19951E-02                                  0.54473E-03
    1.730             0.15678E-02                                  0.19883E-02                                  0.54041E-03
    1.740             0.15600E-02                                  0.19816E-02                                  0.53614E-03
    1.750             0.15522E-02                                  0.19749E-02                                  0.53193E-03
    1.760             0.15445E-02                                  0.19683E-02                                  0.52777E-03
    1.770             0.15369E-02                                  0.19617E-02                                  0.52367E-03
    1.780             0.15294E-02                                  0.19552E-02                                  0.51962E-03
    1.790             0.15219E-02                                  0.19488E-02                                  0.51562E-03
