Height (m)  50th percentile density (kg/m^3)   84th percentile density (kg/m^3)   16th percentile density (kg/m^3) 
    0.200              17.955                             12.694                             16.800
    0.210              17.237                             12.348                             15.792
    0.220              16.579                             12.027                             14.888
    0.230              15.974                             11.729                             14.074
    0.240              15.416                             11.450                             13.338
    0.250              14.900                             11.189                             12.668
    0.260              14.421                             10.944                             12.057
    0.270              13.974                             10.714                             11.497
    0.280              13.557                             10.496                             10.983
    0.290              13.167                             10.291                             10.510
    0.300              12.801                             10.097                             10.072
    0.310              12.457                              9.912                              9.667
    0.320              12.133                              9.737                              9.291
    0.330              11.827                              9.570                              8.940
    0.340              11.538                              9.411                              8.613
    0.350              11.264                              9.259                              8.308
    0.360              11.005                              9.114                              8.021
    0.370              10.758                              8.975                              7.753
    0.380              10.524                              8.842                              7.500
    0.390              10.300                              8.715                              7.263
    0.400              10.087                              8.592                              7.039
    0.410               9.884                              8.475                              6.827
    0.420               9.689                              8.361                              6.627
    0.430               9.503                              8.252                              6.438
    0.440               9.325                              8.147                              6.258
    0.450               9.154                              8.046                              6.088
    0.460               8.990                              7.948                              5.925
    0.470               8.833                              7.853                              5.771
    0.480               8.681                              7.762                              5.625
    0.490               8.536                              7.673                              5.485
    0.500               8.396                              7.587                              5.351
    0.510               8.260                              7.504                              5.224
    0.520               8.130                              7.424                              5.102
    0.530               8.004                              7.346                              4.985
    0.540               7.883                              7.270                              4.873
    0.550               7.765                              7.196                              4.766
    0.560               7.652                              7.125                              4.663
    0.570               7.542                              7.055                              4.565
    0.580               7.436                              6.988                              4.470
    0.590               7.333                              6.922                              4.379
    0.600               7.233                              6.858                              4.292
    0.610               7.137                              6.796                              4.207
    0.620               7.043                              6.735                              4.126
    0.630               6.952                              6.676                              4.048
    0.640               6.863                              6.618                              3.973
    0.650               6.777                              6.561                              3.900
    0.660               6.694                              6.506                              3.830
    0.670               6.613                              6.453                              3.762
    0.680               6.534                              6.400                              3.696
    0.690               6.457                              6.349                              3.633
    0.700               6.382                              6.299                              3.572
    0.710               6.309                              6.250                              3.512
    0.720               6.238                              6.202                              3.455
    0.730               6.169                              6.155                              3.399
    0.740               6.102                              6.109                              3.345
    0.750               6.036                              6.064                              3.293
    0.760               5.972                              6.020                              3.242
    0.770               5.909                              5.977                              3.193
    0.780               5.848                              5.935                              3.145
    0.790               5.788                              5.894                              3.099
    0.800               5.730                              5.853                              3.054
    0.810               5.673                              5.814                              3.010
    0.820               5.617                              5.775                              2.968
    0.830               5.563                              5.736                              2.927
    0.840               5.510                              5.699                              2.886
    0.850               5.458                              5.662                              2.847
    0.860               5.407                              5.626                              2.809
    0.870               5.357                              5.591                              2.772
    0.880               5.308                              5.556                              2.736
    0.890               5.260                              5.522                              2.701
    0.900               5.213                              5.488                              2.666
    0.910               5.168                              5.455                              2.633
    0.920               5.123                              5.423                              2.600
    0.930               5.079                              5.391                              2.569
    0.940               5.035                              5.359                              2.538
    0.950               4.993                              5.329                              2.507
    0.960               4.952                              5.298                              2.478
    0.970               4.911                              5.268                              2.449
    0.980               4.871                              5.239                              2.421
    0.990               4.832                              5.210                              2.393
    1.000               4.793                              5.182                              2.367
    1.010               4.755                              5.154                              2.340
    1.020               4.718                              5.126                              2.315
    1.030               4.682                              5.099                              2.289
    1.040               4.646                              5.073                              2.265
    1.050               4.611                              5.046                              2.241
    1.060               4.576                              5.020                              2.217
    1.070               4.542                              4.995                              2.194
    1.080               4.509                              4.970                              2.172
    1.090               4.476                              4.945                              2.150
    1.100               4.444                              4.921                              2.128
    1.110               4.412                              4.896                              2.107
    1.120               4.381                              4.873                              2.087
    1.130               4.351                              4.849                              2.066
    1.140               4.320                              4.826                              2.046
    1.150               4.291                              4.804                              2.027
    1.160               4.262                              4.781                              2.008
    1.170               4.233                              4.759                              1.989
    1.180               4.205                              4.737                              1.971
    1.190               4.177                              4.716                              1.953
    1.200               4.149                              4.694                              1.935
    1.210               4.122                              4.673                              1.918
    1.220               4.096                              4.653                              1.901
    1.230               4.070                              4.632                              1.884
    1.240               4.044                              4.612                              1.868
    1.250               4.018                              4.592                              1.852
    1.260               3.993                              4.572                              1.836
    1.270               3.969                              4.553                              1.821
    1.280               3.944                              4.534                              1.806
    1.290               3.920                              4.515                              1.791
    1.300               3.897                              4.496                              1.776
    1.310               3.873                              4.478                              1.762
    1.320               3.850                              4.459                              1.747
    1.330               3.828                              4.441                              1.734
    1.340               3.805                              4.423                              1.720
    1.350               3.783                              4.406                              1.706
    1.360               3.762                              4.388                              1.693
    1.370               3.740                              4.371                              1.680
    1.380               3.719                              4.354                              1.667
    1.390               3.698                              4.337                              1.655
    1.400               3.678                              4.321                              1.643
    1.410               3.657                              4.304                              1.630
    1.420               3.637                              4.288                              1.618
    1.430               3.618                              4.272                              1.607
    1.440               3.598                              4.256                              1.595
    1.450               3.579                              4.240                              1.584
    1.460               3.560                              4.224                              1.573
    1.470               3.541                              4.209                              1.562
    1.480               3.522                              4.194                              1.551
    1.490               3.504                              4.179                              1.540
    1.500               3.486                              4.164                              1.529
    1.510               3.468                              4.149                              1.519
    1.520               3.450                              4.134                              1.509
    1.530               3.433                              4.120                              1.499
    1.540               3.416                              4.106                              1.489
    1.550               3.399                              4.091                              1.479
    1.560               3.382                              4.077                              1.470
    1.570               3.365                              4.063                              1.460
    1.580               3.349                              4.050                              1.451
    1.590               3.332                              4.036                              1.442
    1.600               3.316                              4.023                              1.432
    1.610               3.300                              4.009                              1.424
    1.620               3.285                              3.996                              1.415
    1.630               3.269                              3.983                              1.406
    1.640               3.254                              3.970                              1.397
    1.650               3.239                              3.957                              1.389
    1.660               3.224                              3.945                              1.381
    1.670               3.209                              3.932                              1.372
    1.680               3.194                              3.919                              1.364
    1.690               3.180                              3.907                              1.356
    1.700               3.165                              3.895                              1.349
    1.710               3.151                              3.883                              1.341
    1.720               3.137                              3.871                              1.333
    1.730               3.123                              3.859                              1.326
    1.740               3.109                              3.847                              1.318
    1.750               3.096                              3.835                              1.311
    1.760               3.082                              3.824                              1.303
    1.770               3.069                              3.812                              1.296
    1.780               3.056                              3.801                              1.289
    1.790               3.043                              3.790                              1.282
    1.800               3.030                              3.778                              1.275
    1.810               3.017                              3.767                              1.268
    1.820               3.004                              3.756                              1.262
    1.830               2.992                              3.745                              1.255
    1.840               2.979                              3.735                              1.248
    1.850               2.967                              3.724                              1.242
    1.860               2.955                              3.713                              1.236
    1.870               2.943                              3.703                              1.229
    1.880               2.931                              3.692                              1.223
    1.890               2.919                              3.682                              1.217
    1.900               2.908                              3.672                              1.211
    1.910               2.896                              3.662                              1.205
    1.920               2.885                              3.651                              1.199
    1.930               2.873                              3.641                              1.193
    1.940               2.862                              3.632                              1.187
    1.950               2.851                              3.622                              1.181
    1.960               2.840                              3.612                              1.176
    1.970               2.829                              3.602                              1.170
    1.980               2.818                              3.593                              1.165
    1.990               2.807                              3.583                              1.159
    2.000               2.797                              3.574                              1.154
    2.010               2.786                              3.564                              1.148
    2.020               2.776                              3.555                              1.143
    2.030               2.766                              3.546                              1.138
    2.040               2.755                              3.536                              1.133
    2.050               2.745                              3.527                              1.128
    2.060               2.735                              3.518                              1.123
    2.070               2.725                              3.509                              1.118
    2.080               2.715                              3.500                              1.113
    2.090               2.705                              3.492                              1.108
    2.100               2.696                              3.483                              1.103
    2.110               2.686                              3.474                              1.098
    2.120               2.677                              3.466                              1.093
    2.130               2.667                              3.457                              1.089
    2.140               2.658                              3.448                              1.084
    2.150               2.649                              3.440                              1.080
    2.160               2.639                              3.432                              1.075
    2.170               2.630                              3.423                              1.071
