Height (m)  50th percentile velocity (m/s)  84th percentile velocity (m/s)  16th percentile velocity (m/s)
    0.580             19.277                           37.762                           12.035
    0.590             19.321                           37.848                           12.062
    0.600             19.364                           37.932                           12.089
    0.610             19.406                           38.015                           12.115
    0.620             19.448                           38.096                           12.141
    0.630             19.489                           38.176                           12.166
    0.640             19.529                           38.255                           12.192
    0.650             19.568                           38.333                           12.216
    0.660             19.607                           38.409                           12.241
    0.670             19.646                           38.484                           12.265
    0.680             19.684                           38.558                           12.288
    0.690             19.721                           38.631                           12.312
    0.700             19.758                           38.703                           12.334
    0.710             19.794                           38.774                           12.357
    0.720             19.830                           38.844                           12.379
    0.730             19.865                           38.913                           12.401
    0.740             19.900                           38.982                           12.423
    0.750             19.934                           39.049                           12.445
    0.760             19.968                           39.115                           12.466
    0.770             20.001                           39.180                           12.487
    0.780             20.034                           39.245                           12.507
    0.790             20.067                           39.309                           12.527
    0.800             20.099                           39.372                           12.547
    0.810             20.131                           39.434                           12.567
    0.820             20.162                           39.495                           12.587
    0.830             20.193                           39.556                           12.606
    0.840             20.224                           39.616                           12.625
    0.850             20.254                           39.675                           12.644
    0.860             20.284                           39.734                           12.663
    0.870             20.313                           39.791                           12.681
    0.880             20.342                           39.849                           12.699
    0.890             20.371                           39.905                           12.718
    0.900             20.400                           39.961                           12.735
    0.910             20.428                           40.016                           12.753
    0.920             20.456                           40.071                           12.770
    0.930             20.484                           40.125                           12.788
    0.940             20.511                           40.179                           12.805
    0.950             20.538                           40.232                           12.822
    0.960             20.565                           40.284                           12.838
    0.970             20.591                           40.336                           12.855
    0.980             20.617                           40.387                           12.871
    0.990             20.643                           40.438                           12.887
    1.000             20.669                           40.488                           12.903
    1.010             20.694                           40.538                           12.919
    1.020             20.720                           40.588                           12.935
    1.030             20.745                           40.636                           12.951
    1.040             20.769                           40.685                           12.966
    1.050             20.794                           40.733                           12.981
    1.060             20.818                           40.780                           12.996
    1.070             20.842                           40.827                           13.011
    1.080             20.866                           40.874                           13.026
    1.090             20.889                           40.920                           13.041
    1.100             20.913                           40.965                           13.055
    1.110             20.936                           41.011                           13.070
    1.120             20.959                           41.056                           13.084
    1.130             20.981                           41.100                           13.098
    1.140             21.004                           41.144                           13.112
    1.150             21.026                           41.188                           13.126
    1.160             21.048                           41.231                           13.140
    1.170             21.070                           41.274                           13.154
    1.180             21.092                           41.317                           13.167
    1.190             21.113                           41.359                           13.181
    1.200             21.135                           41.401                           13.194
    1.210             21.156                           41.442                           13.207
    1.220             21.177                           41.484                           13.221
    1.230             21.198                           41.524                           13.234
    1.240             21.219                           41.565                           13.246
    1.250             21.239                           41.605                           13.259
    1.260             21.259                           41.645                           13.272
    1.270             21.280                           41.685                           13.285
    1.280             21.300                           41.724                           13.297
    1.290             21.320                           41.763                           13.310
    1.300             21.339                           41.801                           13.322
    1.310             21.359                           41.840                           13.334
    1.320             21.378                           41.878                           13.346
    1.330             21.398                           41.916                           13.358
    1.340             21.417                           41.953                           13.370
    1.350             21.436                           41.990                           13.382
    1.360             21.455                           42.027                           13.394
    1.370             21.473                           42.064                           13.405
    1.380             21.492                           42.100                           13.417
    1.390             21.510                           42.136                           13.429
    1.400             21.529                           42.172                           13.440
    1.410             21.547                           42.208                           13.451
    1.420             21.565                           42.243                           13.463
    1.430             21.583                           42.278                           13.474
    1.440             21.601                           42.313                           13.485
    1.450             21.618                           42.348                           13.496
    1.460             21.636                           42.382                           13.507
    1.470             21.653                           42.417                           13.518
    1.480             21.671                           42.450                           13.529
    1.490             21.688                           42.484                           13.539
    1.500             21.705                           42.518                           13.550
    1.510             21.722                           42.551                           13.561
    1.520             21.739                           42.584                           13.571
    1.530             21.756                           42.617                           13.582
    1.540             21.772                           42.649                           13.592
    1.550             21.789                           42.682                           13.602
    1.560             21.805                           42.714                           13.613
    1.570             21.821                           42.746                           13.623
    1.580             21.838                           42.778                           13.633
    1.590             21.854                           42.809                           13.643
    1.600             21.870                           42.841                           13.653
    1.610             21.886                           42.872                           13.663
    1.620             21.902                           42.903                           13.673
    1.630             21.917                           42.934                           13.683
    1.640             21.933                           42.964                           13.692
    1.650             21.948                           42.995                           13.702
    1.660             21.964                           43.025                           13.712
    1.670             21.979                           43.055                           13.721
    1.680             21.994                           43.085                           13.731
    1.690             22.010                           43.115                           13.740
    1.700             22.025                           43.144                           13.750
    1.710             22.040                           43.173                           13.759
    1.720             22.055                           43.203                           13.768
    1.730             22.069                           43.232                           13.778
    1.740             22.084                           43.260                           13.787
    1.750             22.099                           43.289                           13.796
    1.760             22.113                           43.318                           13.805
    1.770             22.128                           43.346                           13.814
    1.780             22.142                           43.374                           13.823
    1.790             22.156                           43.402                           13.832
    1.800             22.171                           43.430                           13.841
    1.810             22.185                           43.458                           13.850
    1.820             22.199                           43.485                           13.858
    1.830             22.213                           43.513                           13.867
    1.840             22.227                           43.540                           13.876
    1.850             22.241                           43.567                           13.885
    1.860             22.254                           43.594                           13.893
    1.870             22.268                           43.621                           13.902
    1.880             22.282                           43.648                           13.910
    1.890             22.295                           43.674                           13.919
    1.900             22.309                           43.701                           13.927
    1.910             22.322                           43.727                           13.935
    1.920             22.336                           43.753                           13.944
    1.930             22.349                           43.779                           13.952
    1.940             22.362                           43.805                           13.960
    1.950             22.375                           43.831                           13.969
    1.960             22.388                           43.856                           13.977
    1.970             22.401                           43.882                           13.985
    1.980             22.414                           43.907                           13.993
    1.990             22.427                           43.932                           14.001
    2.000             22.440                           43.957                           14.009
    2.010             22.453                           43.982                           14.017
    2.020             22.465                           44.007                           14.025
    2.030             22.478                           44.032                           14.033
    2.040             22.490                           44.057                           14.040
    2.050             22.503                           44.081                           14.048
    2.060             22.515                           44.105                           14.056
    2.070             22.528                           44.130                           14.064
    2.080             22.540                           44.154                           14.071
    2.090             22.552                           44.178                           14.079
    2.100             22.565                           44.202                           14.087
    2.110             22.577                           44.225                           14.094
    2.120             22.589                           44.249                           14.102
    2.130             22.601                           44.273                           14.109
    2.140             22.613                           44.296                           14.117
    2.150             22.625                           44.319                           14.124
    2.160             22.637                           44.343                           14.132
    2.170             22.648                           44.366                           14.139
    2.180             22.660                           44.389                           14.146
    2.190             22.672                           44.412                           14.154
    2.200             22.683                           44.434                           14.161
    2.210             22.695                           44.457                           14.168
    2.220             22.707                           44.480                           14.175
    2.230             22.718                           44.502                           14.183
    2.240             22.729                           44.525                           14.190
    2.250             22.741                           44.547                           14.197
    2.260             22.752                           44.569                           14.204
    2.270             22.763                           44.591                           14.211
    2.280             22.775                           44.613                           14.218
    2.290             22.786                           44.635                           14.225
    2.300             22.797                           44.657                           14.232
    2.310             22.808                           44.679                           14.239
    2.320             22.819                           44.700                           14.246
    2.330             22.830                           44.722                           14.252
    2.340             22.841                           44.743                           14.259
    2.350             22.852                           44.764                           14.266
    2.360             22.863                           44.786                           14.273
    2.370             22.874                           44.807                           14.280
    2.380             22.884                           44.828                           14.286
    2.390             22.895                           44.849                           14.293
    2.400             22.906                           44.870                           14.300
    2.410             22.916                           44.891                           14.306
    2.420             22.927                           44.911                           14.313
    2.430             22.937                           44.932                           14.320
    2.440             22.948                           44.953                           14.326
    2.450             22.958                           44.973                           14.333
    2.460             22.969                           44.993                           14.339
    2.470             22.979                           45.014                           14.346
    2.480             22.989                           45.034                           14.352
    2.490             23.000                           45.054                           14.358
    2.500             23.010                           45.074                           14.365
    2.510             23.020                           45.094                           14.371
    2.520             23.030                           45.114                           14.378
    2.530             23.040                           45.134                           14.384
    2.540             23.051                           45.154                           14.390
    2.550             23.061                           45.173                           14.396
    2.560             23.071                           45.193                           14.403
    2.570             23.081                           45.212                           14.409
    2.580             23.090                           45.232                           14.415
    2.590             23.100                           45.251                           14.421
    2.600             23.110                           45.270                           14.427
    2.610             23.120                           45.290                           14.433
    2.620             23.130                           45.309                           14.440
    2.630             23.139                           45.328                           14.446
    2.640             23.149                           45.347                           14.452
    2.650             23.159                           45.366                           14.458
    2.660             23.168                           45.385                           14.464
