Height (m)  50th percentile particle concentration (-)  84th percentile particle concentration (-)  16th percentile particle concentration (-)
    0.580             0.15191E-02                                  0.32791E-02                                  0.42797E-03
    0.590             0.14848E-02                                  0.32425E-02                                  0.41362E-03
    0.600             0.14517E-02                                  0.32069E-02                                  0.39998E-03
    0.610             0.14199E-02                                  0.31724E-02                                  0.38700E-03
    0.620             0.13893E-02                                  0.31387E-02                                  0.37463E-03
    0.630             0.13599E-02                                  0.31059E-02                                  0.36285E-03
    0.640             0.13315E-02                                  0.30740E-02                                  0.35161E-03
    0.650             0.13041E-02                                  0.30429E-02                                  0.34088E-03
    0.660             0.12777E-02                                  0.30126E-02                                  0.33064E-03
    0.670             0.12522E-02                                  0.29830E-02                                  0.32084E-03
    0.680             0.12275E-02                                  0.29541E-02                                  0.31147E-03
    0.690             0.12038E-02                                  0.29260E-02                                  0.30250E-03
    0.700             0.11807E-02                                  0.28985E-02                                  0.29392E-03
    0.710             0.11585E-02                                  0.28716E-02                                  0.28569E-03
    0.720             0.11370E-02                                  0.28454E-02                                  0.27779E-03
    0.730             0.11161E-02                                  0.28197E-02                                  0.27022E-03
    0.740             0.10959E-02                                  0.27947E-02                                  0.26295E-03
    0.750             0.10764E-02                                  0.27702E-02                                  0.25597E-03
    0.760             0.10574E-02                                  0.27462E-02                                  0.24926E-03
    0.770             0.10390E-02                                  0.27227E-02                                  0.24281E-03
    0.780             0.10212E-02                                  0.26998E-02                                  0.23660E-03
    0.790             0.10039E-02                                  0.26773E-02                                  0.23063E-03
    0.800             0.98704E-03                                  0.26553E-02                                  0.22488E-03
    0.810             0.97071E-03                                  0.26337E-02                                  0.21934E-03
    0.820             0.95485E-03                                  0.26126E-02                                  0.21399E-03
    0.830             0.93943E-03                                  0.25919E-02                                  0.20884E-03
    0.840             0.92443E-03                                  0.25716E-02                                  0.20388E-03
    0.850             0.90985E-03                                  0.25517E-02                                  0.19908E-03
    0.860             0.89566E-03                                  0.25322E-02                                  0.19445E-03
    0.870             0.88185E-03                                  0.25131E-02                                  0.18998E-03
    0.880             0.86841E-03                                  0.24943E-02                                  0.18566E-03
    0.890             0.85532E-03                                  0.24759E-02                                  0.18148E-03
    0.900             0.84257E-03                                  0.24578E-02                                  0.17744E-03
    0.910             0.83014E-03                                  0.24400E-02                                  0.17353E-03
    0.920             0.81803E-03                                  0.24226E-02                                  0.16975E-03
    0.930             0.80622E-03                                  0.24054E-02                                  0.16609E-03
    0.940             0.79471E-03                                  0.23886E-02                                  0.16255E-03
    0.950             0.78347E-03                                  0.23721E-02                                  0.15912E-03
    0.960             0.77251E-03                                  0.23558E-02                                  0.15579E-03
    0.970             0.76181E-03                                  0.23398E-02                                  0.15256E-03
    0.980             0.75137E-03                                  0.23241E-02                                  0.14944E-03
    0.990             0.74117E-03                                  0.23087E-02                                  0.14640E-03
    1.000             0.73121E-03                                  0.22935E-02                                  0.14346E-03
    1.010             0.72148E-03                                  0.22786E-02                                  0.14060E-03
    1.020             0.71198E-03                                  0.22639E-02                                  0.13783E-03
    1.030             0.70268E-03                                  0.22494E-02                                  0.13514E-03
    1.040             0.69360E-03                                  0.22352E-02                                  0.13252E-03
    1.050             0.68472E-03                                  0.22212E-02                                  0.12998E-03
    1.060             0.67603E-03                                  0.22074E-02                                  0.12751E-03
    1.070             0.66753E-03                                  0.21938E-02                                  0.12511E-03
    1.080             0.65921E-03                                  0.21805E-02                                  0.12277E-03
    1.090             0.65108E-03                                  0.21673E-02                                  0.12050E-03
    1.100             0.64311E-03                                  0.21544E-02                                  0.11829E-03
    1.110             0.63531E-03                                  0.21416E-02                                  0.11614E-03
    1.120             0.62768E-03                                  0.21290E-02                                  0.11404E-03
    1.130             0.62020E-03                                  0.21166E-02                                  0.11201E-03
    1.140             0.61287E-03                                  0.21044E-02                                  0.11002E-03
    1.150             0.60570E-03                                  0.20924E-02                                  0.10809E-03
    1.160             0.59866E-03                                  0.20805E-02                                  0.10620E-03
    1.170             0.59177E-03                                  0.20688E-02                                  0.10437E-03
    1.180             0.58502E-03                                  0.20573E-02                                  0.10258E-03
    1.190             0.57839E-03                                  0.20459E-02                                  0.10083E-03
    1.200             0.57190E-03                                  0.20347E-02                                  0.99131E-04
    1.210             0.56553E-03                                  0.20236E-02                                  0.97471E-04
    1.220             0.55928E-03                                  0.20127E-02                                  0.95852E-04
    1.230             0.55315E-03                                  0.20020E-02                                  0.94273E-04
    1.240             0.54713E-03                                  0.19913E-02                                  0.92731E-04
    1.250             0.54123E-03                                  0.19809E-02                                  0.91226E-04
    1.260             0.53544E-03                                  0.19705E-02                                  0.89757E-04
    1.270             0.52975E-03                                  0.19603E-02                                  0.88323E-04
    1.280             0.52417E-03                                  0.19502E-02                                  0.86922E-04
    1.290             0.51868E-03                                  0.19403E-02                                  0.85553E-04
    1.300             0.51330E-03                                  0.19305E-02                                  0.84216E-04
    1.310             0.50801E-03                                  0.19208E-02                                  0.82909E-04
    1.320             0.50282E-03                                  0.19112E-02                                  0.81632E-04
    1.330             0.49771E-03                                  0.19018E-02                                  0.80383E-04
    1.340             0.49270E-03                                  0.18924E-02                                  0.79163E-04
    1.350             0.48777E-03                                  0.18832E-02                                  0.77969E-04
    1.360             0.48292E-03                                  0.18741E-02                                  0.76802E-04
    1.370             0.47816E-03                                  0.18651E-02                                  0.75660E-04
    1.380             0.47348E-03                                  0.18562E-02                                  0.74543E-04
    1.390             0.46888E-03                                  0.18474E-02                                  0.73450E-04
    1.400             0.46435E-03                                  0.18387E-02                                  0.72380E-04
    1.410             0.45990E-03                                  0.18301E-02                                  0.71333E-04
    1.420             0.45552E-03                                  0.18217E-02                                  0.70308E-04
    1.430             0.45122E-03                                  0.18133E-02                                  0.69305E-04
    1.440             0.44698E-03                                  0.18050E-02                                  0.68322E-04
    1.450             0.44281E-03                                  0.17968E-02                                  0.67360E-04
    1.460             0.43871E-03                                  0.17887E-02                                  0.66417E-04
    1.470             0.43467E-03                                  0.17807E-02                                  0.65493E-04
    1.480             0.43070E-03                                  0.17728E-02                                  0.64589E-04
    1.490             0.42679E-03                                  0.17649E-02                                  0.63702E-04
    1.500             0.42294E-03                                  0.17572E-02                                  0.62833E-04
    1.510             0.41915E-03                                  0.17495E-02                                  0.61981E-04
    1.520             0.41542E-03                                  0.17420E-02                                  0.61147E-04
    1.530             0.41174E-03                                  0.17345E-02                                  0.60328E-04
    1.540             0.40812E-03                                  0.17271E-02                                  0.59525E-04
    1.550             0.40456E-03                                  0.17197E-02                                  0.58738E-04
    1.560             0.40104E-03                                  0.17125E-02                                  0.57966E-04
    1.570             0.39758E-03                                  0.17053E-02                                  0.57209E-04
    1.580             0.39418E-03                                  0.16982E-02                                  0.56466E-04
    1.590             0.39082E-03                                  0.16912E-02                                  0.55738E-04
    1.600             0.38751E-03                                  0.16842E-02                                  0.55022E-04
    1.610             0.38425E-03                                  0.16773E-02                                  0.54320E-04
    1.620             0.38103E-03                                  0.16705E-02                                  0.53632E-04
    1.630             0.37786E-03                                  0.16638E-02                                  0.52955E-04
    1.640             0.37474E-03                                  0.16571E-02                                  0.52292E-04
    1.650             0.37166E-03                                  0.16505E-02                                  0.51640E-04
    1.660             0.36862E-03                                  0.16439E-02                                  0.51000E-04
    1.670             0.36563E-03                                  0.16375E-02                                  0.50371E-04
    1.680             0.36268E-03                                  0.16310E-02                                  0.49754E-04
    1.690             0.35977E-03                                  0.16247E-02                                  0.49148E-04
    1.700             0.35689E-03                                  0.16184E-02                                  0.48552E-04
    1.710             0.35406E-03                                  0.16122E-02                                  0.47967E-04
    1.720             0.35127E-03                                  0.16060E-02                                  0.47392E-04
    1.730             0.34851E-03                                  0.15999E-02                                  0.46827E-04
    1.740             0.34579E-03                                  0.15938E-02                                  0.46272E-04
    1.750             0.34311E-03                                  0.15878E-02                                  0.45727E-04
    1.760             0.34046E-03                                  0.15819E-02                                  0.45190E-04
    1.770             0.33785E-03                                  0.15760E-02                                  0.44663E-04
    1.780             0.33527E-03                                  0.15702E-02                                  0.44145E-04
    1.790             0.33273E-03                                  0.15644E-02                                  0.43635E-04
    1.800             0.33022E-03                                  0.15587E-02                                  0.43134E-04
    1.810             0.32774E-03                                  0.15530E-02                                  0.42641E-04
    1.820             0.32529E-03                                  0.15474E-02                                  0.42157E-04
    1.830             0.32288E-03                                  0.15418E-02                                  0.41680E-04
    1.840             0.32049E-03                                  0.15363E-02                                  0.41211E-04
    1.850             0.31813E-03                                  0.15309E-02                                  0.40750E-04
    1.860             0.31581E-03                                  0.15254E-02                                  0.40296E-04
    1.870             0.31351E-03                                  0.15201E-02                                  0.39850E-04
    1.880             0.31124E-03                                  0.15147E-02                                  0.39410E-04
    1.890             0.30900E-03                                  0.15095E-02                                  0.38978E-04
    1.900             0.30679E-03                                  0.15042E-02                                  0.38553E-04
    1.910             0.30461E-03                                  0.14990E-02                                  0.38134E-04
    1.920             0.30245E-03                                  0.14939E-02                                  0.37722E-04
    1.930             0.30031E-03                                  0.14888E-02                                  0.37316E-04
    1.940             0.29821E-03                                  0.14838E-02                                  0.36916E-04
    1.950             0.29613E-03                                  0.14787E-02                                  0.36523E-04
    1.960             0.29407E-03                                  0.14738E-02                                  0.36136E-04
    1.970             0.29204E-03                                  0.14688E-02                                  0.35754E-04
    1.980             0.29003E-03                                  0.14640E-02                                  0.35379E-04
    1.990             0.28804E-03                                  0.14591E-02                                  0.35009E-04
    2.000             0.28608E-03                                  0.14543E-02                                  0.34645E-04
    2.010             0.28414E-03                                  0.14495E-02                                  0.34286E-04
    2.020             0.28222E-03                                  0.14448E-02                                  0.33932E-04
    2.030             0.28033E-03                                  0.14401E-02                                  0.33584E-04
    2.040             0.27846E-03                                  0.14355E-02                                  0.33241E-04
    2.050             0.27661E-03                                  0.14309E-02                                  0.32903E-04
    2.060             0.27477E-03                                  0.14263E-02                                  0.32570E-04
    2.070             0.27296E-03                                  0.14218E-02                                  0.32242E-04
    2.080             0.27117E-03                                  0.14173E-02                                  0.31918E-04
    2.090             0.26941E-03                                  0.14128E-02                                  0.31600E-04
    2.100             0.26766E-03                                  0.14084E-02                                  0.31285E-04
    2.110             0.26592E-03                                  0.14040E-02                                  0.30976E-04
    2.120             0.26421E-03                                  0.13996E-02                                  0.30670E-04
    2.130             0.26252E-03                                  0.13953E-02                                  0.30369E-04
    2.140             0.26085E-03                                  0.13910E-02                                  0.30073E-04
    2.150             0.25919E-03                                  0.13867E-02                                  0.29780E-04
    2.160             0.25755E-03                                  0.13825E-02                                  0.29492E-04
    2.170             0.25593E-03                                  0.13783E-02                                  0.29207E-04
