Height (m)  50th percentile particle concentration (-)  84th percentile particle concentration (-)  16th percentile particle concentration (-)
    0.580             0.14197E-03                                  0.12723E-04                                  0.10249E-02
    0.590             0.13876E-03                                  0.12297E-04                                  0.10136E-02
    0.600             0.13568E-03                                  0.11891E-04                                  0.10026E-02
    0.610             0.13271E-03                                  0.11505E-04                                  0.99183E-03
    0.620             0.12986E-03                                  0.11138E-04                                  0.98139E-03
    0.630             0.12711E-03                                  0.10787E-04                                  0.97122E-03
    0.640             0.12446E-03                                  0.10453E-04                                  0.96132E-03
    0.650             0.12190E-03                                  0.10134E-04                                  0.95167E-03
    0.660             0.11944E-03                                  0.98295E-05                                  0.94226E-03
    0.670             0.11706E-03                                  0.95383E-05                                  0.93308E-03
    0.680             0.11476E-03                                  0.92598E-05                                  0.92412E-03
    0.690             0.11254E-03                                  0.89931E-05                                  0.91538E-03
    0.700             0.11039E-03                                  0.87378E-05                                  0.90685E-03
    0.710             0.10831E-03                                  0.84931E-05                                  0.89851E-03
    0.720             0.10630E-03                                  0.82585E-05                                  0.89037E-03
    0.730             0.10436E-03                                  0.80334E-05                                  0.88241E-03
    0.740             0.10247E-03                                  0.78173E-05                                  0.87463E-03
    0.750             0.10065E-03                                  0.76097E-05                                  0.86702E-03
    0.760             0.98877E-04                                  0.74102E-05                                  0.85957E-03
    0.770             0.97160E-04                                  0.72184E-05                                  0.85229E-03
    0.780             0.95494E-04                                  0.70339E-05                                  0.84516E-03
    0.790             0.93878E-04                                  0.68563E-05                                  0.83818E-03
    0.800             0.92308E-04                                  0.66853E-05                                  0.83134E-03
    0.810             0.90783E-04                                  0.65205E-05                                  0.82465E-03
    0.820             0.89302E-04                                  0.63617E-05                                  0.81808E-03
    0.830             0.87862E-04                                  0.62086E-05                                  0.81165E-03
    0.840             0.86462E-04                                  0.60609E-05                                  0.80535E-03
    0.850             0.85100E-04                                  0.59183E-05                                  0.79916E-03
    0.860             0.83776E-04                                  0.57807E-05                                  0.79310E-03
    0.870             0.82486E-04                                  0.56477E-05                                  0.78715E-03
    0.880             0.81231E-04                                  0.55193E-05                                  0.78132E-03
    0.890             0.80008E-04                                  0.53951E-05                                  0.77559E-03
    0.900             0.78817E-04                                  0.52750E-05                                  0.76996E-03
    0.910             0.77657E-04                                  0.51589E-05                                  0.76444E-03
    0.920             0.76526E-04                                  0.50465E-05                                  0.75902E-03
    0.930             0.75423E-04                                  0.49376E-05                                  0.75370E-03
    0.940             0.74347E-04                                  0.48323E-05                                  0.74846E-03
    0.950             0.73298E-04                                  0.47302E-05                                  0.74332E-03
    0.960             0.72275E-04                                  0.46313E-05                                  0.73827E-03
    0.970             0.71275E-04                                  0.45354E-05                                  0.73330E-03
    0.980             0.70300E-04                                  0.44424E-05                                  0.72842E-03
    0.990             0.69347E-04                                  0.43522E-05                                  0.72362E-03
    1.000             0.68417E-04                                  0.42647E-05                                  0.71890E-03
    1.010             0.67508E-04                                  0.41798E-05                                  0.71425E-03
    1.020             0.66620E-04                                  0.40973E-05                                  0.70968E-03
    1.030             0.65752E-04                                  0.40173E-05                                  0.70519E-03
    1.040             0.64903E-04                                  0.39395E-05                                  0.70076E-03
    1.050             0.64073E-04                                  0.38639E-05                                  0.69641E-03
    1.060             0.63262E-04                                  0.37905E-05                                  0.69212E-03
    1.070             0.62468E-04                                  0.37191E-05                                  0.68790E-03
    1.080             0.61691E-04                                  0.36497E-05                                  0.68374E-03
    1.090             0.60930E-04                                  0.35821E-05                                  0.67965E-03
    1.100             0.60186E-04                                  0.35164E-05                                  0.67562E-03
    1.110             0.59458E-04                                  0.34525E-05                                  0.67165E-03
    1.120             0.58744E-04                                  0.33902E-05                                  0.66773E-03
    1.130             0.58046E-04                                  0.33296E-05                                  0.66388E-03
    1.140             0.57361E-04                                  0.32706E-05                                  0.66008E-03
    1.150             0.56690E-04                                  0.32131E-05                                  0.65633E-03
    1.160             0.56033E-04                                  0.31571E-05                                  0.65264E-03
    1.170             0.55389E-04                                  0.31025E-05                                  0.64900E-03
    1.180             0.54758E-04                                  0.30493E-05                                  0.64541E-03
    1.190             0.54139E-04                                  0.29975E-05                                  0.64187E-03
    1.200             0.53532E-04                                  0.29469E-05                                  0.63838E-03
    1.210             0.52937E-04                                  0.28975E-05                                  0.63493E-03
    1.220             0.52353E-04                                  0.28494E-05                                  0.63154E-03
    1.230             0.51780E-04                                  0.28025E-05                                  0.62819E-03
    1.240             0.51218E-04                                  0.27566E-05                                  0.62488E-03
    1.250             0.50666E-04                                  0.27119E-05                                  0.62162E-03
    1.260             0.50125E-04                                  0.26682E-05                                  0.61840E-03
    1.270             0.49593E-04                                  0.26256E-05                                  0.61522E-03
    1.280             0.49071E-04                                  0.25839E-05                                  0.61208E-03
    1.290             0.48559E-04                                  0.25432E-05                                  0.60899E-03
    1.300             0.48056E-04                                  0.25035E-05                                  0.60593E-03
    1.310             0.47561E-04                                  0.24646E-05                                  0.60291E-03
    1.320             0.47076E-04                                  0.24267E-05                                  0.59993E-03
    1.330             0.46599E-04                                  0.23895E-05                                  0.59698E-03
    1.340             0.46130E-04                                  0.23533E-05                                  0.59408E-03
    1.350             0.45669E-04                                  0.23178E-05                                  0.59120E-03
    1.360             0.45216E-04                                  0.22831E-05                                  0.58837E-03
    1.370             0.44771E-04                                  0.22491E-05                                  0.58556E-03
    1.380             0.44334E-04                                  0.22159E-05                                  0.58279E-03
    1.390             0.43904E-04                                  0.21834E-05                                  0.58006E-03
    1.400             0.43481E-04                                  0.21516E-05                                  0.57735E-03
    1.410             0.43064E-04                                  0.21205E-05                                  0.57468E-03
    1.420             0.42655E-04                                  0.20900E-05                                  0.57204E-03
    1.430             0.42253E-04                                  0.20602E-05                                  0.56943E-03
    1.440             0.41857E-04                                  0.20310E-05                                  0.56684E-03
    1.450             0.41467E-04                                  0.20024E-05                                  0.56429E-03
    1.460             0.41083E-04                                  0.19743E-05                                  0.56177E-03
    1.470             0.40706E-04                                  0.19469E-05                                  0.55927E-03
    1.480             0.40335E-04                                  0.19200E-05                                  0.55681E-03
    1.490             0.39969E-04                                  0.18936E-05                                  0.55437E-03
    1.500             0.39609E-04                                  0.18678E-05                                  0.55195E-03
    1.510             0.39254E-04                                  0.18425E-05                                  0.54957E-03
    1.520             0.38906E-04                                  0.18177E-05                                  0.54721E-03
    1.530             0.38562E-04                                  0.17933E-05                                  0.54487E-03
    1.540             0.38223E-04                                  0.17695E-05                                  0.54256E-03
    1.550             0.37890E-04                                  0.17461E-05                                  0.54028E-03
    1.560             0.37562E-04                                  0.17231E-05                                  0.53802E-03
    1.570             0.37238E-04                                  0.17006E-05                                  0.53578E-03
    1.580             0.36919E-04                                  0.16785E-05                                  0.53356E-03
    1.590             0.36605E-04                                  0.16569E-05                                  0.53137E-03
    1.600             0.36296E-04                                  0.16356E-05                                  0.52920E-03
    1.610             0.35991E-04                                  0.16147E-05                                  0.52706E-03
    1.620             0.35690E-04                                  0.15943E-05                                  0.52493E-03
    1.630             0.35394E-04                                  0.15742E-05                                  0.52283E-03
    1.640             0.35102E-04                                  0.15544E-05                                  0.52075E-03
    1.650             0.34814E-04                                  0.15351E-05                                  0.51869E-03
    1.660             0.34530E-04                                  0.15160E-05                                  0.51665E-03
    1.670             0.34250E-04                                  0.14973E-05                                  0.51463E-03
    1.680             0.33974E-04                                  0.14790E-05                                  0.51263E-03
    1.690             0.33702E-04                                  0.14610E-05                                  0.51065E-03
    1.700             0.33433E-04                                  0.14433E-05                                  0.50868E-03
    1.710             0.33168E-04                                  0.14259E-05                                  0.50674E-03
    1.720             0.32907E-04                                  0.14088E-05                                  0.50482E-03
    1.730             0.32649E-04                                  0.13920E-05                                  0.50291E-03
    1.740             0.32395E-04                                  0.13755E-05                                  0.50102E-03
    1.750             0.32144E-04                                  0.13593E-05                                  0.49915E-03
    1.760             0.31896E-04                                  0.13433E-05                                  0.49730E-03
    1.770             0.31652E-04                                  0.13277E-05                                  0.49547E-03
    1.780             0.31411E-04                                  0.13122E-05                                  0.49365E-03
    1.790             0.31173E-04                                  0.12971E-05                                  0.49185E-03
    1.800             0.30938E-04                                  0.12822E-05                                  0.49006E-03
    1.810             0.30706E-04                                  0.12676E-05                                  0.48829E-03
    1.820             0.30477E-04                                  0.12531E-05                                  0.48654E-03
    1.830             0.30251E-04                                  0.12390E-05                                  0.48480E-03
    1.840             0.30028E-04                                  0.12250E-05                                  0.48308E-03
    1.850             0.29808E-04                                  0.12113E-05                                  0.48138E-03
    1.860             0.29590E-04                                  0.11978E-05                                  0.47969E-03
    1.870             0.29375E-04                                  0.11846E-05                                  0.47801E-03
    1.880             0.29163E-04                                  0.11715E-05                                  0.47635E-03
    1.890             0.28954E-04                                  0.11587E-05                                  0.47470E-03
    1.900             0.28747E-04                                  0.11460E-05                                  0.47307E-03
    1.910             0.28542E-04                                  0.11336E-05                                  0.47145E-03
    1.920             0.28340E-04                                  0.11213E-05                                  0.46985E-03
    1.930             0.28141E-04                                  0.11092E-05                                  0.46826E-03
    1.940             0.27944E-04                                  0.10974E-05                                  0.46668E-03
    1.950             0.27749E-04                                  0.10857E-05                                  0.46512E-03
    1.960             0.27556E-04                                  0.10742E-05                                  0.46357E-03
    1.970             0.27366E-04                                  0.10628E-05                                  0.46203E-03
    1.980             0.27178E-04                                  0.10517E-05                                  0.46051E-03
    1.990             0.26993E-04                                  0.10407E-05                                  0.45899E-03
    2.000             0.26809E-04                                  0.10298E-05                                  0.45749E-03
    2.010             0.26628E-04                                  0.10192E-05                                  0.45601E-03
    2.020             0.26448E-04                                  0.10087E-05                                  0.45453E-03
    2.030             0.26271E-04                                  0.99831E-06                                  0.45307E-03
    2.040             0.26096E-04                                  0.98811E-06                                  0.45162E-03
    2.050             0.25923E-04                                  0.97806E-06                                  0.45018E-03
    2.060             0.25751E-04                                  0.96816E-06                                  0.44875E-03
    2.070             0.25582E-04                                  0.95840E-06                                  0.44733E-03
    2.080             0.25415E-04                                  0.94879E-06                                  0.44593E-03
    2.090             0.25249E-04                                  0.93931E-06                                  0.44453E-03
    2.100             0.25085E-04                                  0.92997E-06                                  0.44315E-03
    2.110             0.24923E-04                                  0.92076E-06                                  0.44178E-03
    2.120             0.24763E-04                                  0.91169E-06                                  0.44042E-03
    2.130             0.24605E-04                                  0.90274E-06                                  0.43906E-03
    2.140             0.24448E-04                                  0.89392E-06                                  0.43772E-03
    2.150             0.24293E-04                                  0.88522E-06                                  0.43639E-03
    2.160             0.24140E-04                                  0.87664E-06                                  0.43507E-03
    2.170             0.23988E-04                                  0.86819E-06                                  0.43376E-03
