Height (m)  50th percentile dynamic pressure (Pa)  84th percentile dynamic pressure (Pa)  16th percentile dynamic pressure (Pa)
    0.580              0.7392E+02                             0.1330E+04                             0.1918E+02
    0.590              0.7357E+02                             0.1323E+04                             0.1923E+02
    0.600              0.7323E+02                             0.1317E+04                             0.1928E+02
    0.610              0.7291E+02                             0.1311E+04                             0.1933E+02
    0.620              0.7260E+02                             0.1305E+04                             0.1938E+02
    0.630              0.7231E+02                             0.1300E+04                             0.1943E+02
    0.640              0.7203E+02                             0.1294E+04                             0.1948E+02
    0.650              0.7176E+02                             0.1289E+04                             0.1953E+02
    0.660              0.7150E+02                             0.1283E+04                             0.1958E+02
    0.670              0.7126E+02                             0.1278E+04                             0.1963E+02
    0.680              0.7102E+02                             0.1273E+04                             0.1968E+02
    0.690              0.7079E+02                             0.1268E+04                             0.1973E+02
    0.700              0.7058E+02                             0.1263E+04                             0.1978E+02
    0.710              0.7037E+02                             0.1258E+04                             0.1983E+02
    0.720              0.7017E+02                             0.1253E+04                             0.1988E+02
    0.730              0.6998E+02                             0.1248E+04                             0.1992E+02
    0.740              0.6980E+02                             0.1244E+04                             0.1997E+02
    0.750              0.6962E+02                             0.1239E+04                             0.2002E+02
    0.760              0.6945E+02                             0.1235E+04                             0.2007E+02
    0.770              0.6929E+02                             0.1230E+04                             0.2012E+02
    0.780              0.6913E+02                             0.1226E+04                             0.2017E+02
    0.790              0.6899E+02                             0.1222E+04                             0.2022E+02
    0.800              0.6884E+02                             0.1218E+04                             0.2027E+02
    0.810              0.6871E+02                             0.1214E+04                             0.2032E+02
    0.820              0.6857E+02                             0.1210E+04                             0.2036E+02
    0.830              0.6845E+02                             0.1206E+04                             0.2041E+02
    0.840              0.6833E+02                             0.1202E+04                             0.2046E+02
    0.850              0.6821E+02                             0.1198E+04                             0.2051E+02
    0.860              0.6810E+02                             0.1195E+04                             0.2055E+02
    0.870              0.6799E+02                             0.1191E+04                             0.2060E+02
    0.880              0.6789E+02                             0.1187E+04                             0.2065E+02
    0.890              0.6779E+02                             0.1184E+04                             0.2069E+02
    0.900              0.6770E+02                             0.1180E+04                             0.2074E+02
    0.910              0.6761E+02                             0.1177E+04                             0.2079E+02
    0.920              0.6752E+02                             0.1173E+04                             0.2083E+02
    0.930              0.6744E+02                             0.1170E+04                             0.2088E+02
    0.940              0.6736E+02                             0.1167E+04                             0.2092E+02
    0.950              0.6728E+02                             0.1164E+04                             0.2097E+02
    0.960              0.6721E+02                             0.1160E+04                             0.2101E+02
    0.970              0.6714E+02                             0.1157E+04                             0.2106E+02
    0.980              0.6707E+02                             0.1154E+04                             0.2110E+02
    0.990              0.6701E+02                             0.1151E+04                             0.2114E+02
    1.000              0.6695E+02                             0.1148E+04                             0.2119E+02
    1.010              0.6689E+02                             0.1145E+04                             0.2123E+02
    1.020              0.6683E+02                             0.1142E+04                             0.2127E+02
    1.030              0.6678E+02                             0.1139E+04                             0.2132E+02
    1.040              0.6673E+02                             0.1137E+04                             0.2136E+02
    1.050              0.6668E+02                             0.1134E+04                             0.2140E+02
    1.060              0.6663E+02                             0.1131E+04                             0.2145E+02
    1.070              0.6659E+02                             0.1128E+04                             0.2149E+02
    1.080              0.6654E+02                             0.1126E+04                             0.2153E+02
    1.090              0.6650E+02                             0.1123E+04                             0.2157E+02
    1.100              0.6647E+02                             0.1120E+04                             0.2161E+02
    1.110              0.6643E+02                             0.1118E+04                             0.2165E+02
    1.120              0.6640E+02                             0.1115E+04                             0.2169E+02
    1.130              0.6636E+02                             0.1113E+04                             0.2174E+02
    1.140              0.6633E+02                             0.1110E+04                             0.2178E+02
    1.150              0.6630E+02                             0.1108E+04                             0.2182E+02
    1.160              0.6628E+02                             0.1105E+04                             0.2186E+02
    1.170              0.6625E+02                             0.1103E+04                             0.2190E+02
    1.180              0.6622E+02                             0.1100E+04                             0.2194E+02
    1.190              0.6620E+02                             0.1098E+04                             0.2197E+02
    1.200              0.6618E+02                             0.1096E+04                             0.2201E+02
    1.210              0.6616E+02                             0.1094E+04                             0.2205E+02
    1.220              0.6614E+02                             0.1091E+04                             0.2209E+02
    1.230              0.6612E+02                             0.1089E+04                             0.2213E+02
    1.240              0.6611E+02                             0.1087E+04                             0.2217E+02
    1.250              0.6609E+02                             0.1085E+04                             0.2221E+02
    1.260              0.6608E+02                             0.1082E+04                             0.2224E+02
    1.270              0.6607E+02                             0.1080E+04                             0.2228E+02
    1.280              0.6606E+02                             0.1078E+04                             0.2232E+02
    1.290              0.6605E+02                             0.1076E+04                             0.2236E+02
    1.300              0.6604E+02                             0.1074E+04                             0.2239E+02
    1.310              0.6603E+02                             0.1072E+04                             0.2243E+02
    1.320              0.6602E+02                             0.1070E+04                             0.2247E+02
    1.330              0.6601E+02                             0.1068E+04                             0.2250E+02
    1.340              0.6601E+02                             0.1066E+04                             0.2254E+02
    1.350              0.6600E+02                             0.1064E+04                             0.2258E+02
    1.360              0.6600E+02                             0.1062E+04                             0.2261E+02
    1.370              0.6600E+02                             0.1060E+04                             0.2265E+02
    1.380              0.6600E+02                             0.1058E+04                             0.2268E+02
    1.390              0.6600E+02                             0.1057E+04                             0.2272E+02
    1.400              0.6600E+02                             0.1055E+04                             0.2275E+02
    1.410              0.6600E+02                             0.1053E+04                             0.2279E+02
    1.420              0.6600E+02                             0.1051E+04                             0.2282E+02
    1.430              0.6600E+02                             0.1049E+04                             0.2286E+02
    1.440              0.6600E+02                             0.1048E+04                             0.2289E+02
    1.450              0.6601E+02                             0.1046E+04                             0.2293E+02
    1.460              0.6601E+02                             0.1044E+04                             0.2296E+02
    1.470              0.6602E+02                             0.1042E+04                             0.2300E+02
    1.480              0.6602E+02                             0.1041E+04                             0.2303E+02
    1.490              0.6603E+02                             0.1039E+04                             0.2306E+02
    1.500              0.6603E+02                             0.1037E+04                             0.2310E+02
    1.510              0.6604E+02                             0.1036E+04                             0.2313E+02
    1.520              0.6605E+02                             0.1034E+04                             0.2316E+02
    1.530              0.6606E+02                             0.1032E+04                             0.2320E+02
    1.540              0.6607E+02                             0.1031E+04                             0.2323E+02
    1.550              0.6608E+02                             0.1029E+04                             0.2326E+02
    1.560              0.6609E+02                             0.1028E+04                             0.2329E+02
    1.570              0.6610E+02                             0.1026E+04                             0.2333E+02
    1.580              0.6611E+02                             0.1024E+04                             0.2336E+02
    1.590              0.6612E+02                             0.1023E+04                             0.2339E+02
    1.600              0.6613E+02                             0.1021E+04                             0.2342E+02
    1.610              0.6614E+02                             0.1020E+04                             0.2345E+02
    1.620              0.6616E+02                             0.1018E+04                             0.2349E+02
    1.630              0.6617E+02                             0.1017E+04                             0.2352E+02
    1.640              0.6618E+02                             0.1015E+04                             0.2355E+02
    1.650              0.6620E+02                             0.1014E+04                             0.2358E+02
    1.660              0.6621E+02                             0.1013E+04                             0.2361E+02
    1.670              0.6623E+02                             0.1011E+04                             0.2364E+02
    1.680              0.6624E+02                             0.1010E+04                             0.2367E+02
    1.690              0.6626E+02                             0.1008E+04                             0.2370E+02
    1.700              0.6627E+02                             0.1007E+04                             0.2373E+02
    1.710              0.6629E+02                             0.1006E+04                             0.2376E+02
    1.720              0.6631E+02                             0.1004E+04                             0.2379E+02
    1.730              0.6632E+02                             0.1003E+04                             0.2382E+02
    1.740              0.6634E+02                             0.1002E+04                             0.2385E+02
    1.750              0.6636E+02                             0.1000E+04                             0.2388E+02
    1.760              0.6638E+02                             0.9989E+03                             0.2391E+02
    1.770              0.6640E+02                             0.9976E+03                             0.2394E+02
    1.780              0.6641E+02                             0.9963E+03                             0.2397E+02
    1.790              0.6643E+02                             0.9950E+03                             0.2400E+02
    1.800              0.6645E+02                             0.9937E+03                             0.2403E+02
    1.810              0.6647E+02                             0.9924E+03                             0.2406E+02
    1.820              0.6649E+02                             0.9912E+03                             0.2409E+02
    1.830              0.6651E+02                             0.9899E+03                             0.2412E+02
    1.840              0.6653E+02                             0.9887E+03                             0.2415E+02
    1.850              0.6655E+02                             0.9875E+03                             0.2417E+02
    1.860              0.6657E+02                             0.9863E+03                             0.2420E+02
    1.870              0.6659E+02                             0.9851E+03                             0.2423E+02
    1.880              0.6661E+02                             0.9839E+03                             0.2426E+02
    1.890              0.6664E+02                             0.9827E+03                             0.2429E+02
    1.900              0.6666E+02                             0.9815E+03                             0.2431E+02
    1.910              0.6668E+02                             0.9803E+03                             0.2434E+02
    1.920              0.6670E+02                             0.9792E+03                             0.2437E+02
    1.930              0.6672E+02                             0.9780E+03                             0.2440E+02
    1.940              0.6675E+02                             0.9769E+03                             0.2443E+02
    1.950              0.6677E+02                             0.9758E+03                             0.2445E+02
    1.960              0.6679E+02                             0.9747E+03                             0.2448E+02
    1.970              0.6681E+02                             0.9735E+03                             0.2451E+02
    1.980              0.6684E+02                             0.9724E+03                             0.2453E+02
    1.990              0.6686E+02                             0.9713E+03                             0.2456E+02
    2.000              0.6688E+02                             0.9703E+03                             0.2459E+02
    2.010              0.6691E+02                             0.9692E+03                             0.2461E+02
    2.020              0.6693E+02                             0.9681E+03                             0.2464E+02
    2.030              0.6695E+02                             0.9670E+03                             0.2467E+02
    2.040              0.6698E+02                             0.9660E+03                             0.2469E+02
    2.050              0.6700E+02                             0.9649E+03                             0.2472E+02
    2.060              0.6703E+02                             0.9639E+03                             0.2475E+02
    2.070              0.6705E+02                             0.9629E+03                             0.2477E+02
    2.080              0.6707E+02                             0.9618E+03                             0.2480E+02
    2.090              0.6710E+02                             0.9608E+03                             0.2482E+02
    2.100              0.6712E+02                             0.9598E+03                             0.2485E+02
    2.110              0.6715E+02                             0.9588E+03                             0.2487E+02
    2.120              0.6717E+02                             0.9578E+03                             0.2490E+02
    2.130              0.6720E+02                             0.9568E+03                             0.2493E+02
    2.140              0.6722E+02                             0.9558E+03                             0.2495E+02
    2.150              0.6725E+02                             0.9549E+03                             0.2498E+02
    2.160              0.6727E+02                             0.9539E+03                             0.2500E+02
    2.170              0.6730E+02                             0.9529E+03                             0.2503E+02
    2.180              0.6733E+02                             0.9520E+03                             0.2505E+02
    2.190              0.6735E+02                             0.9510E+03                             0.2508E+02
    2.200              0.6738E+02                             0.9501E+03                             0.2510E+02
    2.210              0.6740E+02                             0.9492E+03                             0.2513E+02
    2.220              0.6743E+02                             0.9482E+03                             0.2515E+02
    2.230              0.6746E+02                             0.9473E+03                             0.2517E+02
    2.240              0.6748E+02                             0.9464E+03                             0.2520E+02
    2.250              0.6751E+02                             0.9455E+03                             0.2522E+02
    2.260              0.6753E+02                             0.9446E+03                             0.2525E+02
    2.270              0.6756E+02                             0.9437E+03                             0.2527E+02
    2.280              0.6759E+02                             0.9428E+03                             0.2530E+02
    2.290              0.6761E+02                             0.9419E+03                             0.2532E+02
    2.300              0.6764E+02                             0.9410E+03                             0.2534E+02
    2.310              0.6767E+02                             0.9401E+03                             0.2537E+02
    2.320              0.6769E+02                             0.9393E+03                             0.2539E+02
    2.330              0.6772E+02                             0.9384E+03                             0.2541E+02
    2.340              0.6775E+02                             0.9376E+03                             0.2544E+02
